time (s)	magX	magY	magZ
7159.579254	171.153137	96.099945	-41.095268
7159.582588	172.438934	97.093513	-43.140854
7159.585918	172.848053	97.619522	-44.192871
7159.589246	173.900055	98.379311	-44.543541
7159.592581	175.127411	99.197548	-45.303333
7159.595919	175.945648	100.483345	-46.355347
7159.599269	176.705429	101.827583	-46.355347
7159.602577	178.166565	102.587379	-48.225601
7159.605912	179.043259	103.756287	-48.517826
7159.609241	180.153717	104.691414	-48.810055
7159.612580	181.497955	105.100533	-50.563416
7159.615912	182.725311	106.444771	-51.440094
7159.619244	184.420227	107.847458	-52.959671
7159.622582	186.056702	109.425484	-54.829926
7159.625909	188.102264	110.009941	-55.648159
7159.629244	189.095856	111.237289	-56.641731
7159.632580	191.492126	112.347755	-57.927528
7159.637247	194.823486	115.094688	-61.901814
7159.640540	197.687317	116.555817	-63.479836
7159.643458	199.440674	117.081825	-64.824081
7159.646785	201.953827	117.900063	-66.635887
7159.650118	204.291626	118.952080	-68.856812
7159.653500	206.629456	120.471657	-71.369957
7159.656869	209.493286	121.523674	-72.772644
7159.660098	211.714203	122.634132	-75.519577
7159.663420	214.694916	123.803040	-77.331390
7159.666776	217.675629	124.855057	-79.552307
7159.670110	219.896545	126.433083	-82.357689
7159.672996	223.403259	127.251320	-84.520164
7159.676329	225.331970	128.829346	-87.267097
7159.679688	228.195801	129.764465	-89.838692
7159.683019	232.053192	131.167145	-92.351837
7159.686361	234.449432	132.745178	-95.391006
7159.689668	237.313263	135.141434	-98.605499
7159.692988	240.177094	136.427231	-101.644653
7159.696334	243.508484	138.823486	-104.099350
7159.699665	246.372284	139.992401	-106.904739
7159.702993	249.353027	142.447098	-110.002335
7159.706324	252.275299	144.726471	-113.509064
7159.709231	255.548218	146.947403	-117.424896
7159.712569	258.879608	149.811218	-119.938049
7159.715903	261.801880	151.623016	-124.087677
7159.719240	264.724152	153.727051	-127.652832
7159.722587	267.587952	156.181763	-131.627121
7159.725902	270.919342	158.519577	-136.536530
7159.729238	273.081818	161.266510	-140.627701
7159.732572	276.822327	164.071884	-145.829330
7159.735920	279.919922	167.169479	-149.862061
7159.739234	283.309753	169.507294	-154.946823
7159.742569	286.816498	172.020447	-159.622452
7159.745904	290.089417	174.825821	-165.174744
7159.749230	293.713043	177.689651	-171.369965
7159.752563	297.687317	179.969025	-176.805389
7159.755897	300.901794	183.592621	-183.526596
7159.759234	305.109863	185.638229	-189.897141
7159.762566	309.025726	188.385147	-196.969025
7159.765938	313.350647	190.664520	-203.631805
7159.769225	317.909424	192.885452	-210.995911
7159.772563	321.766785	195.807709	-219.002930
7159.775891	326.851532	198.496201	-226.951492
7159.779225	331.001160	200.424896	-234.724731
7159.782557	335.384552	202.587372	-243.491531
7159.785897	339.417297	204.808289	-253.777924
7159.789228	345.028046	207.672119	-262.953827
7159.792561	349.820557	209.600815	-272.363525
7159.795915	354.379303	211.412613	-282.416138
7159.799231	359.405579	213.049088	-292.059601
7159.802553	364.139679	215.328461	-303.222687
7159.805948	369.282867	217.549377	-314.619537
7159.809233	374.484497	219.711868	-326.016357
7159.812557	378.225006	221.172989	-337.647003
7159.815897	382.900635	223.452362	-349.394531
7159.819222	387.284058	225.497955	-361.258911
7159.822554	391.316772	227.309769	-374.759796
7159.825889	395.407928	229.706009	-387.384003
7159.829223	398.797791	231.459366	-401.235535
7159.832556	401.895386	233.504974	-414.151947
7159.835886	404.817627	235.550552	-428.237305
7159.839222	407.272339	237.946808	-442.322632
7159.842560	410.779083	240.226181	-456.583282
7159.845891	413.058441	242.271774	-471.428406
7159.849220	414.753357	244.200455	-486.624207
7159.852561	416.156036	246.888962	-502.462860
7159.855888	417.266510	248.992981	-518.243103
7159.859216	418.376984	251.272354	-534.900024
7159.862552	418.902985	253.727066	-551.264771
7159.865886	419.312103	255.538849	-568.213867
7159.869245	419.428986	257.116882	-587.267090
7159.872557	418.727631	258.402710	-604.391541
7159.875903	417.208069	259.746918	-623.210999
7159.879218	415.805359	260.097626	-641.738159
7159.882577	413.467560	260.506714	-660.323730
7159.885890	410.895966	260.915833	-679.026306
7159.889219	407.506134	259.688477	-698.897644
7159.892546	403.239624	258.636475	-718.126221
7159.895883	398.973114	256.123322	-738.172974
7159.899213	393.713013	253.727066	-758.745728
7159.902550	388.803619	250.804794	-779.143188
7159.905881	383.192841	246.655167	-800.358826
7159.909221	377.406769	243.206894	-821.516052
7159.913915	362.386322	232.336060	-864.122742
7159.916840	354.028625	225.848618	-885.338379
7159.920143	345.086487	219.361191	-907.722900
7159.923485	335.676788	212.055511	-927.945007
7159.926763	325.741089	203.639389	-949.335999
7159.930059	314.110443	194.814148	-970.551636
7159.933394	302.129150	185.229095	-990.130859
7159.936760	290.030975	175.410278	-1008.541199
7159.940086	276.120972	165.065460	-1026.367065
7159.943506	261.918762	153.960831	-1043.842285
7159.946334	246.313843	142.680893	-1059.447144
7159.949716	229.949158	131.167145	-1075.402710
7159.952973	213.116882	119.653419	-1091.241455
7159.956345	195.875519	107.730568	-1104.917603
7159.959636	177.289886	95.632378	-1117.775635
7159.962969	158.762726	83.475746	-1128.938721
7159.966300	139.592636	72.254242	-1140.160156
7159.969641	119.779663	60.214493	-1150.212769
7159.972965	99.323792	48.291641	-1157.693848
7159.976319	78.517242	36.485680	-1165.116333
7159.979657	57.827587	25.264174	-1171.603760
7159.982546	35.443016	12.464641	-1178.441895
7159.985892	14.344242	1.184687	-1181.831665
7159.989214	-6.579193	-9.978373	-1183.176025
7159.992541	-29.197548	-21.959673	-1184.111084
7159.995872	-50.413208	-33.239632	-1183.117554
7159.999229	-72.622444	-44.519577	-1180.487427
7160.002541	-93.662758	-56.150200	-1176.220947
7160.005872	-114.644646	-66.845703	-1170.551758
7160.009208	-135.977203	-78.593224	-1164.005859
7160.012537	-156.140839	-89.697830	-1156.115723
7160.015878	-175.836945	-100.919350	-1146.881470
7160.019204	-194.773224	-111.731743	-1137.062622
7160.022536	-214.118652	-123.654579	-1125.198242
7160.025868	-232.470490	-134.876099	-1113.333740
7160.029207	-249.594971	-146.097610	-1100.241943
7160.032535	-266.894806	-157.903564	-1086.682617
7160.035892	-283.960846	-169.300415	-1072.597412
7160.039202	-298.689087	-180.638809	-1056.057251
7160.042536	-313.475739	-191.334305	-1038.874390
7160.045865	-328.028656	-202.088257	-1021.399170
7160.049202	-340.711273	-211.848633	-1003.164185
7160.052529	-352.751038	-221.725906	-983.760315
7160.055865	-364.440094	-231.369385	-963.362976
7160.059202	-373.382263	-239.843964	-943.140869
7160.062535	-382.441254	-248.260071	-921.632935
7160.065865	-390.623627	-256.033325	-900.241943
7160.069204	-398.630646	-263.222076	-877.798889
7160.072530	-405.176514	-269.826416	-854.829834
7160.075866	-411.196381	-275.612518	-832.854431
7160.079197	-416.690216	-281.515503	-809.710083
7160.082533	-421.190521	-286.015778	-787.267090
7160.085874	-424.931030	-289.522522	-765.583801
7160.089194	-429.548248	-292.912323	-744.368225
7160.092531	-431.476898	-295.191711	-721.983582
7160.095867	-433.580933	-297.997070	-700.651062
7160.099198	-435.451202	-299.867340	-679.201599
7160.102523	-436.327911	-300.568695	-658.161255
7160.105859	-438.256561	-300.685547	-637.296265
7160.109199	-437.964355	-300.744019	-615.788391
7160.112571	-438.081238	-299.575104	-595.215637
7160.115870	-437.847443	-298.464661	-576.337769
7160.119198	-437.496765	-296.243713	-556.407898
7160.122565	-435.860321	-294.841034	-538.114563
7160.125859	-434.048523	-292.912323	-520.230286
7160.129208	-432.528961	-290.106964	-501.703094
7160.132533	-430.658691	-287.652283	-484.403290
7160.135858	-428.203979	-284.613098	-467.921692
7160.139194	-424.931030	-281.924622	-451.030975
7160.143879	-418.969604	-275.203369	-419.587372
7160.146790	-415.287567	-273.157806	-404.625366
7160.150118	-412.073059	-269.651093	-389.488007
7160.153472	-408.215698	-266.904144	-375.110474
7160.156779	-404.007599	-263.455872	-361.960266
7160.160040	-399.507294	-260.299835	-348.167175
7160.163376	-395.065460	-258.721802	-333.964935
7160.166710	-390.974304	-255.799561	-322.451202
7160.170054	-385.246643	-252.234375	-310.119232
7160.173435	-379.869659	-249.604340	-296.618347
7160.176799	-374.726471	-246.857391	-285.279938
7160.180127	-369.524841	-244.461151	-274.642883
7160.183439	-364.206329	-241.129761	-263.421387
7160.186300	-358.770905	-238.967255	-253.018127
7160.189612	-353.043243	-236.687927	-242.147293
7160.192939	-348.133850	-233.473404	-232.211578
7160.196284	-341.938629	-230.726471	-222.743439
7160.199612	-336.678558	-228.680893	-213.041504
7160.202941	-331.593811	-225.291077	-205.034485
7160.206275	-326.158417	-222.777908	-195.566345
7160.209645	-320.313843	-220.498550	-187.676224
7160.212965	-315.346008	-217.985413	-179.376984
7160.215877	-310.553467	-215.180023	-172.071304
7160.219202	-304.767395	-212.316193	-165.876099
7160.222519	-299.858002	-209.160156	-158.044418
7160.225852	-295.123901	-206.471664	-151.673874
7160.229202	-291.091187	-203.549393	-144.894211
7160.232517	-285.538879	-199.984222	-138.348328
7160.235850	-281.564606	-196.886627	-133.146698
7160.239187	-277.239624	-194.373474	-128.295731
7160.242512	-272.563995	-191.684967	-122.568100
7160.245849	-268.414368	-188.002930	-118.243134
7160.249182	-264.849213	-185.372894	-113.742844
7160.252511	-260.758026	-182.158386	-109.417877
7160.255847	-257.134430	-179.294571	-104.566925
7160.259198	-253.510834	-176.547638	-100.651085
7160.262509	-250.471649	-173.450027	-96.326126
7160.265845	-246.848053	-171.638229	-92.468735
7160.269180	-243.925781	-168.365295	-89.195793
7160.272517	-240.886627	-166.378143	-86.390411
7160.275845	-237.672150	-163.105209	-83.175919
7160.279230	-235.042084	-161.468735	-79.552307
7160.282513	-231.886047	-159.130920	-76.688492
7160.285846	-228.963776	-156.559326	-73.532440
7160.289180	-225.749268	-154.630630	-70.727058
7160.292512	-222.184113	-152.117477	-68.681473
7160.295838	-219.612518	-150.422562	-65.642319
7160.299180	-216.924011	-148.026306	-62.895386
7160.302540	-214.293976	-145.922272	-61.258915
7160.305841	-210.728821	-143.935135	-58.453537
7160.309172	-208.390991	-143.233795	-56.700176
7160.312507	-205.527191	-141.012863	-54.420807
7160.315843	-203.014038	-139.668625	-51.966103
7160.319177	-200.617767	-138.265930	-49.862068
7160.322508	-197.461700	-137.272354	-48.284046
7160.325842	-195.065460	-135.811218	-45.829338
7160.329172	-192.260101	-134.817657	-44.134426
7160.332509	-190.506714	-133.298080	-41.329048
7160.335843	-187.642883	-132.362946	-39.751022
7160.339191	-185.480408	-130.960266	-37.939217
7160.342510	-183.493256	-130.200470	-36.770309
7160.345848	-180.980133	-128.505554	-34.783169
7160.349180	-178.291656	-127.336632	-33.322037
7160.352502	-176.362946	-126.050850	-31.218002
7160.355839	-174.492676	-124.531258	-29.873758
7160.359169	-172.213318	-124.180595	-28.412624
7160.362500	-170.401520	-122.836342	-26.776155
7160.365834	-168.765045	-121.667442	-26.659264
7160.369169	-167.128571	-120.440102	-25.022795
7160.372504	-166.310333	-119.271187	-24.146114
7160.375833	-164.323212	-118.043831	-23.327879
7160.379174	-162.686737	-117.225594	-22.568090
7160.382537	-161.693146	-116.115135	-21.165401
7160.385838	-160.758026	-114.887779	-20.288719
7160.389176	-159.121582	-114.537117	-19.938047
7160.393850	-157.017517	-111.965523	-18.418468
7160.396764	-156.257751	-111.614845	-17.658680
7160.400089	-155.264191	-111.030388	-17.132671
7160.403352	-154.095245	-109.861488	-16.372883
7160.406695	-153.627686	-108.751015	-15.846874
7160.410016	-152.926361	-107.523674	-15.320866
7160.413375	-151.699005	-107.523674	-14.677967
7160.416702	-152.049683	-106.413200	-14.268848
7160.420087	-150.763885	-105.945641	-14.210403
7160.423437	-150.004089	-105.653419	-13.450615
7160.426294	-149.244293	-105.010513	-13.450615
7160.429587	-148.542969	-104.542953	-12.983051
7160.432934	-148.484497	-103.958504	-12.457045
7160.436257	-147.432495	-103.783157	-12.983051
7160.439592	-146.438934	-103.198715	-11.989481
7160.442916	-145.737579	-102.906487	-12.573935
7160.446257	-145.036224	-102.672699	-10.762129
7160.449613	-144.334900	-102.205139	-12.164818
7160.452937	-143.867340	-101.971359	-10.820574
7160.456299	-143.399750	-101.796028	-10.411457
7160.459157	-142.756866	-101.737579	-10.879021
7160.462544	-141.587952	-102.205139	-10.119230
7160.465832	-140.945068	-101.445351	-9.476332
7160.469184	-140.652832	-101.796028	-9.476332
7160.472489	-140.594391	-101.270012	-9.008770
7160.475830	-139.893036	-101.620689	-9.008770
7160.479159	-139.191711	-101.153130	-7.781414
7160.482492	-138.548798	-101.270012	-7.781414
7160.485820	-139.191711	-101.620689	-8.716541
7160.489164	-138.198120	-101.796028	-8.599648
7160.492493	-137.964355	-101.445351	-8.716541
7160.495826	-137.204559	-101.328461	-7.956749
7160.499155	-137.438324	-101.679131	-7.606079
7160.502491	-137.613678	-101.562241	-7.956749
7160.505822	-137.789001	-101.620689	-7.372295
7160.509152	-137.379913	-101.737579	-7.722969
7160.512498	-137.555237	-101.562241	-7.606079
7160.515824	-137.496796	-101.094681	-7.898304
7160.519153	-138.315033	-101.211563	-6.963181
7160.522490	-137.905884	-101.503792	-7.664524
7160.525818	-138.373474	-101.562241	-8.482758
7160.529198	-138.957916	-101.796028	-8.424313
7160.532489	-139.717712	-101.679131	-9.008770
7160.535818	-140.477509	-102.029808	-9.067215
7160.539155	-140.769714	-102.146690	-9.417887
7160.542516	-141.354187	-102.380470	-9.885448
7160.545820	-141.763306	-102.146690	-9.710114
7160.549147	-142.873749	-102.906487	-10.820574
7160.552486	-143.633545	-103.374046	-10.645239
7160.555830	-145.153137	-103.607826	-10.937466
7160.559149	-145.328461	-104.075386	-11.931036
7160.562481	-146.497375	-104.309174	-12.807716
7160.565814	-146.438934	-104.659851	-12.866161
7160.569148	-147.666290	-105.068962	-13.625950
7160.572479	-148.133850	-105.594978	-13.918177
7160.575814	-148.893646	-106.237869	-14.502630
7160.579145	-149.770325	-107.172997	-14.677967
7160.582479	-151.056122	-107.757454	-14.911747
7160.585832	-151.114563	-108.809471	-15.729982
7160.589149	-152.692566	-109.393929	-16.139101
7160.592485	-153.043274	-110.270607	-15.963766
7160.595818	-153.686157	-111.147285	-17.191118
7160.599163	-154.387482	-111.848625	-17.658680
7160.602479	-155.147278	-112.491524	-17.366453
7160.605817	-156.199310	-113.660423	-18.652250
7160.609143	-157.075958	-114.946220	-19.061369
7160.612474	-158.303314	-116.115135	-19.178259
7160.615816	-158.946228	-116.699593	-19.470486
7160.620496	-161.108704	-118.686729	-21.632965
7160.623366	-162.043823	-120.089424	-21.983637
7160.626732	-163.621857	-121.609001	-23.210989
7160.630111	-165.083008	-121.959663	-24.087667
7160.633431	-166.661011	-123.713036	-25.431911
7160.636661	-167.654602	-125.115715	-25.490356
7160.639997	-168.706604	-125.700172	-26.308594
7160.643338	-170.985962	-126.869072	-27.945061
7160.646676	-172.213318	-128.037994	-29.523087
7160.650025	-174.843384	-129.616028	-30.984221
7160.652930	-176.362946	-130.901810	-32.737579
7160.656254	-178.525421	-131.603165	-33.789597
7160.659659	-180.629456	-132.947418	-34.724724
7160.662901	-182.207489	-134.583878	-36.419640
7160.666232	-185.012848	-135.928116	-38.289890
7160.669558	-187.350677	-137.213913	-39.049679
7160.672930	-189.688477	-138.558167	-42.556400
7160.676229	-192.026306	-140.136185	-44.660435
7160.679559	-194.656342	-142.006439	-46.764465
7160.682469	-196.760376	-143.409119	-48.868500
7160.685814	-199.448853	-144.753357	-50.563416
7160.689137	-202.312683	-146.565170	-53.310345
7160.692471	-204.942719	-148.143204	-55.765049
7160.695802	-208.390991	-150.364120	-57.985973
7160.699154	-210.962616	-152.117477	-61.142021
7160.702505	-213.943298	-154.279968	-63.655174
7160.705804	-216.982483	-156.033310	-67.278786
7160.709138	-219.787872	-158.955582	-69.090591
7160.712466	-222.593231	-160.942734	-71.954414
7160.715823	-225.690826	-162.929871	-75.578026
7160.719136	-228.203979	-165.735245	-78.032730
7160.722464	-231.652252	-168.482178	-81.188782
7160.725803	-234.749847	-171.112213	-84.870834
7160.729137	-237.438354	-173.800705	-87.968445
7160.732465	-240.945068	-175.846298	-91.182938
7160.735799	-243.867340	-179.294571	-94.864990
7160.739135	-247.315613	-182.567520	-99.131500
7160.742466	-250.822327	-185.022217	-103.631790
7160.745816	-253.686157	-188.178268	-107.898300
7160.749130	-257.134430	-191.626541	-111.872589
7160.752468	-259.647583	-193.555222	-116.372879
7160.755794	-263.504974	-197.120392	-120.580948
7160.759130	-266.953247	-199.925766	-125.198135
7160.762521	-270.109283	-202.789612	-129.406189
7160.765807	-273.849792	-206.530106	-135.192291
7160.769133	-277.882538	-208.692581	-141.095276
7160.772461	-281.856812	-212.257751	-146.647583
7160.775798	-285.772644	-214.829346	-152.725891
7160.779130	-289.454712	-218.336075	-158.161316
7160.782465	-293.896545	-221.784348	-165.291641
7160.785798	-298.630646	-225.115723	-172.655762
7160.789148	-303.130920	-228.388657	-180.195206
7160.792459	-308.507904	-231.486267	-187.617767
7160.795792	-312.891296	-234.992981	-195.566345
7160.799126	-317.976044	-238.090607	-203.573349
7160.802459	-322.359436	-240.954407	-213.099945
7160.805795	-327.385742	-244.168915	-222.042084
7160.809123	-332.645813	-247.441864	-231.744019
7160.812462	-337.496796	-250.890137	-241.913513
7160.815794	-342.581543	-254.747528	-251.498535
7160.819125	-347.783173	-257.611328	-263.246063
7160.822465	-352.692566	-261.001160	-274.701324
7160.825812	-357.777344	-264.040344	-284.987701
7160.829171	-362.745148	-267.780853	-297.144379
7160.832467	-367.479248	-270.819977	-310.119232
7160.835790	-372.505554	-274.385162	-323.327881
7160.840418	-382.090576	-282.216858	-350.855652
7160.843750	-385.655762	-285.489777	-364.298065
7160.846663	-389.220917	-289.756287	-378.617187
7160.850019	-393.487427	-293.263031	-393.462311
7160.853408	-397.227936	-296.419067	-409.184113
7160.856724	-400.442444	-299.984222	-425.373474
7160.860030	-403.598480	-304.192291	-440.861481
7160.863332	-406.286987	-307.757477	-457.752197
7160.866643	-408.215698	-311.673309	-475.402710
7160.870027	-411.430145	-314.770905	-492.234955
7160.873319	-412.774384	-318.219177	-510.236115
7160.876289	-414.352448	-321.550537	-529.230835
7160.879581	-415.170685	-324.998840	-547.056641
7160.882899	-415.638214	-327.745758	-565.525391
7160.886227	-416.398010	-329.791351	-585.630554
7160.889561	-416.865570	-332.129150	-604.742249
7160.892875	-415.988892	-334.642334	-624.847412
7160.896201	-415.579773	-336.687927	-645.361755
7160.899544	-414.410889	-337.798370	-665.350098
7160.902870	-413.125061	-338.558167	-687.091736
7160.906199	-411.021057	-338.908813	-708.482727
7160.909552	-408.800140	-338.207489	-729.639954
7160.912907	-406.053192	-337.447693	-751.030945
7160.916227	-402.546478	-336.220337	-773.123291
7160.919119	-398.864441	-334.057861	-794.163635
7160.922450	-393.721222	-331.720062	-816.665100
7160.925787	-389.162476	-328.622437	-839.400330
7160.929195	-383.317963	-325.174164	-861.609558
7160.932454	-376.596771	-320.498566	-883.643433
7160.935778	-369.583282	-315.121582	-905.852661
7160.939109	-362.043823	-309.452393	-927.302124
7160.942449	-353.861481	-303.257172	-949.160767
7160.945783	-343.458221	-296.828186	-971.428345
7160.949116	-333.756287	-289.171814	-992.234985
7160.952445	-321.891876	-281.106354	-1012.457092
7160.955817	-310.904175	-272.514893	-1031.685547
7160.959112	-296.701935	-263.280548	-1051.498535
7160.962464	-283.434845	-253.987732	-1068.973755
7160.965778	-268.297516	-243.876678	-1086.682617
7160.969113	-253.043274	-233.882538	-1101.820068
7160.972440	-236.152557	-224.180588	-1116.781982
7160.975779	-218.560516	-213.251312	-1130.692017
7160.979106	-200.325562	-202.322037	-1142.556396
7160.982444	-182.441284	-191.217407	-1154.420776
7160.985774	-163.563416	-180.755707	-1164.707275
7160.989109	-144.159546	-169.300415	-1174.350708
7160.992438	-123.060783	-158.721802	-1181.364136
