time (s)	magX	magY	magZ
4981.041234	213.638794	-73.906479	65.841614
4981.044566	216.619507	-74.958496	69.465225
4981.047953	220.418457	-75.776733	71.101700
4981.051253	223.516068	-77.179428	74.549973
4981.054650	227.431900	-78.406784	78.115143
4981.057999	232.282852	-79.517242	81.855637
4981.061270	235.848022	-80.335480	85.187027
4981.064564	239.705429	-81.738159	89.511978
4981.067900	243.738159	-83.199295	94.655167
4981.071260	247.595551	-84.251312	99.097015
4981.074581	252.388077	-85.478668	103.831085
4981.077979	256.303925	-85.829346	107.922256
4981.081326	261.856232	-86.647568	113.474579
4981.084683	266.590302	-86.238464	118.442429
4981.087896	270.155457	-87.465820	124.345413
4981.091249	275.181763	-88.400940	130.248398
4981.094567	280.091187	-88.634720	136.794266
4981.097918	285.117462	-88.576279	141.060791
4981.101259	290.786682	-88.693161	148.015778
4981.104647	294.994751	-88.810059	156.022797
4981.108006	300.488617	-90.095840	162.334885
4981.110856	306.391602	-89.978958	170.108124
4981.114564	312.353027	-89.745178	178.758041
4981.117890	317.788422	-89.803635	185.829910
4981.120798	323.399170	-89.686737	194.596741
4981.124146	330.471069	-90.271194	204.006424
4981.127500	335.789612	-90.095840	211.779663
4981.130803	341.692596	-89.920517	221.130905
4981.134159	346.075989	-90.797195	232.644653
4981.137499	353.089417	-90.855637	243.281708
4981.140827	358.641754	-90.680298	253.626526
4981.144137	364.486267	-91.089417	264.263580
4981.147473	369.103455	-91.147873	276.595551
4981.150794	374.071320	-91.732315	289.219757
4981.154124	380.792511	-91.966095	302.662170
4981.157471	385.234375	-92.784332	314.585022
4981.160793	391.312683	-93.485687	329.488617
4981.164132	396.397430	-93.719467	344.859741
4981.167489	401.891296	-93.076569	357.717682
4981.170855	406.917603	-93.544128	372.621277
4981.174151	411.534790	-93.427231	389.102844
4981.177471	414.573944	-93.368790	405.058441
4981.180807	418.372894	-93.135010	422.066040
4981.184124	424.158966	-92.433655	437.963165
4981.187462	427.607239	-91.323196	456.899475
4981.190803	428.951508	-90.563416	476.244904
4981.194154	433.685547	-89.160721	492.434235
4981.197457	436.081818	-87.232040	512.247253
4981.200821	437.133850	-85.537109	531.183533
4981.204149	438.945648	-82.907074	551.230286
4981.207486	442.160156	-79.575684	568.997681
4981.210846	443.270599	-76.478088	587.232605
4981.214157	443.562805	-72.153122	610.376953
4981.217463	443.329071	-66.893051	627.793701
4981.220796	443.796600	-62.684978	648.132690
4981.224124	440.815887	-56.139095	668.646973
4981.227456	439.296326	-50.703686	687.466431
4981.230790	438.185852	-43.748688	706.578064
4981.234129	435.555817	-36.969021	727.209290
4981.237477	431.406189	-29.371128	750.645813
4981.240812	427.373474	-21.130333	766.952087
4981.244152	420.710693	-12.889538	789.219788
4981.247075	415.275299	-4.181181	807.337830
4981.250365	407.911194	5.111631	823.819397
4981.253700	398.735260	14.696669	843.340149
4981.257053	389.793121	25.216833	864.438965
4981.260363	378.688507	34.509644	881.621887
4981.263696	368.226776	44.679134	893.077148
4981.267037	356.771484	55.199299	913.416138
4981.270358	343.621277	64.842781	925.981934
4981.273690	330.061951	75.888947	941.879028
4981.277028	316.093506	85.883102	953.158997
4981.280359	300.722382	96.169495	965.490967
4981.283692	284.182343	106.338989	981.154297
4981.287026	268.168335	115.982468	991.265320
4981.290358	250.810059	125.801285	1001.610291
4981.293688	232.575089	135.912338	1007.045593
4981.297023	213.872574	145.906494	1014.935730
4981.300360	193.942719	155.140839	1021.773865
4981.303685	174.714188	164.258331	1025.748047
4981.307029	153.849213	172.791336	1027.442993
4981.310367	133.627121	182.084152	1033.755127
4981.313689	112.820572	190.324951	1035.333130
4981.317022	92.189362	199.617767	1033.053711
4981.320361	71.558151	208.209229	1028.962646
4981.323691	51.160725	216.566910	1026.858521
4981.327021	30.178841	224.340149	1022.767395
4981.330357	9.547630	233.457626	1015.052673
4981.333685	-9.856226	241.815292	1009.967834
4981.337024	-29.026300	249.062531	999.330872
4981.340358	-48.137932	256.660431	988.752197
4981.343713	-66.723557	263.440094	978.465820
4981.347015	-83.964928	270.979553	967.302734
4981.350355	-101.673882	277.876099	949.769165
4981.353687	-119.032143	285.357086	936.677429
4981.357022	-134.227951	292.779663	921.130981
4981.360354	-151.060211	298.682648	903.421997
4981.363690	-164.911758	304.936279	887.232605
4981.367019	-179.347748	310.722382	870.984802
4981.370348	-192.614853	315.514893	851.171814
4981.373736	-204.245468	320.774963	834.690247
4981.377028	-215.291656	324.983032	813.708374
4981.380354	-226.980728	328.489777	792.551208
4981.383686	-236.682632	331.236694	775.309814
4981.387044	-245.917007	334.743408	754.035645
4981.390351	-255.911179	335.503204	734.281128
4981.393683	-264.619507	336.379913	711.838135
4981.397017	-272.626526	337.607239	692.434265
4981.400343	-279.873749	336.964325	673.497986
4981.403684	-286.302734	336.204559	652.691467
4981.407016	-291.329041	336.438324	635.683838
4981.410343	-295.946228	334.918762	614.760376
4981.413682	-301.440063	332.113373	596.759216
4981.417014	-306.524841	329.015778	579.225647
4981.420346	-311.083557	325.625946	558.711304
4981.423679	-313.655151	322.236115	543.398621
4981.427013	-317.454102	318.904724	524.462341
4981.430355	-319.850372	314.053772	509.617218
4981.433678	-322.071289	309.728821	492.083588
4981.437009	-321.720642	305.696075	476.011108
4981.440355	-322.947968	301.429565	458.945038
4981.443677	-324.467560	296.227936	444.216827
4981.447013	-325.168884	291.669189	428.728790
4981.450344	-326.688477	286.584442	414.059021
4981.453684	-325.694885	281.032135	401.201019
4981.457008	-324.759766	276.648743	388.226196
4981.460378	-323.707764	271.213318	375.134430
4981.463674	-321.662170	267.297485	361.049103
4981.467005	-320.785492	262.388092	347.255981
4981.470348	-319.090576	256.718872	337.086517
4981.473686	-316.518982	253.270599	324.228516
4981.477009	-313.655151	248.185837	311.136749
4981.480347	-312.018677	244.737564	300.558167
4981.483673	-308.687317	240.412613	289.979553
4981.487003	-304.537689	236.789001	278.874908
4981.490367	-301.907623	232.347168	268.120972
4981.493672	-298.517822	228.022217	258.419037
4981.497007	-294.601959	224.924606	248.950897
4981.500340	-292.264160	220.482742	239.599640
4981.503694	-287.530090	217.735825	229.663940
4981.507026	-283.263580	213.586197	220.663345
4981.510339	-279.873749	209.611923	212.013458
4981.513668	-275.607239	206.338989	203.538864
4981.517021	-271.516052	203.416702	197.109879
4981.520334	-266.665100	199.383972	188.226196
4981.523670	-263.041504	195.701920	180.803619
4981.527008	-258.833405	192.195206	173.030396
4981.530335	-254.566940	189.272934	165.374039
4981.533668	-251.235550	185.590881	159.178848
4981.537007	-247.319687	182.317947	153.217407
4981.540335	-242.936295	178.577438	147.080658
4981.543665	-239.429581	174.895370	140.359436
4981.547002	-236.507309	171.563995	134.164230
4981.550332	-232.357681	168.291046	129.839264
4981.553667	-229.493881	164.550552	123.760956
4981.557004	-225.285812	161.394501	120.195786
4981.560349	-221.954407	158.238449	114.585037
4981.563666	-219.850388	154.088837	109.792511
4981.566998	-216.811218	151.108109	106.285797
4981.570334	-213.655182	147.718292	101.785492
4981.573666	-210.031570	145.146698	98.161896
4981.576994	-207.927536	141.523087	93.836929
4981.580368	-206.057281	138.893036	92.083588
4981.583667	-202.433670	136.789001	87.758621
4981.586996	-199.862076	133.048508	85.362350
4981.590328	-196.998260	130.476913	81.446518
4981.593661	-195.887802	128.197540	79.167160
4981.596992	-193.783752	126.093521	76.829346
4981.600333	-191.913498	123.405029	73.614838
4981.603688	-189.341919	121.417892	70.867920
4981.606994	-185.718292	119.547638	69.289886
4981.610325	-184.257172	117.618942	66.601410
4981.613667	-182.094681	115.573349	64.497375
4981.616997	-181.101120	113.586212	61.750439
4981.620324	-177.886627	112.066635	60.639980
4981.623667	-174.730576	110.313263	58.711277
4981.626998	-172.801865	109.495041	55.964344
4981.630330	-171.399185	107.858566	54.678547
4981.633661	-169.002930	106.046753	52.282291
4981.636993	-166.197556	105.111633	50.645824
4981.640326	-164.970200	103.533600	48.249561
4981.643660	-162.164825	102.014023	46.379314
4981.647015	-160.645248	101.020462	45.268848
4981.650326	-158.950317	99.500885	43.340153
4981.653686	-156.261841	97.630630	41.236118
4981.656993	-154.566925	97.163071	40.593220
4981.660323	-152.872009	95.994156	39.482761
4981.663656	-151.469315	95.117477	37.320278
4981.666992	-149.657516	93.773224	36.326710
4981.670322	-146.443024	93.071884	34.924023
4981.673653	-145.274124	91.727646	34.222675
4981.676988	-143.637650	90.208069	32.936878
4981.680320	-142.527176	89.448273	30.832844
4981.683656	-140.832260	88.396255	29.780830
4981.686990	-138.494446	87.110458	29.313267
4981.690365	-138.552902	86.233780	29.137928
4981.693650	-137.150208	84.831085	27.735241
4981.696992	-135.163071	83.779068	26.040329
4981.700320	-134.227951	82.551727	25.572765
4981.703650	-132.883698	81.675049	24.053188
4981.706985	-132.182358	80.330811	23.410286
4981.710317	-131.247223	79.512573	21.949154
4981.713655	-129.786087	78.928116	21.949154
4981.717005	-129.201645	77.934540	21.130920
4981.720325	-128.909409	76.882523	21.247810
4981.723651	-128.032745	75.947403	20.897141
4981.726985	-128.149628	75.479843	21.072472
4981.730322	-126.980705	74.544708	20.546467
4981.733678	-126.045586	73.668030	19.786674
4981.736983	-126.688484	72.674461	18.968441
4981.740320	-125.285805	72.382233	18.559319
4981.743643	-125.227348	71.096436	18.442429
4981.746979	-123.941551	71.271774	18.208649
4981.750318	-123.415535	70.745758	17.916424
4981.753649	-123.590889	70.395096	17.273521
4981.756982	-123.707771	70.219757	17.624195
4981.760313	-123.298653	69.284622	17.273521
4981.763651	-122.246635	69.576859	17.565754
4981.766980	-121.545296	68.817062	17.098190
4981.770308	-121.019295	68.933952	16.922852
4981.773645	-120.610161	68.758621	16.455288
4981.777003	-120.084160	68.232605	16.922852
4981.780307	-119.733482	68.817062	16.864407
4981.783656	-119.382820	67.414375	16.338398
4981.786988	-119.032143	67.414375	16.046173
4981.790306	-119.265923	67.648155	16.104614
4981.793640	-118.389244	67.706604	16.279957
4981.796977	-117.863243	67.531265	15.111046
4981.800313	-117.220345	67.297485	15.344826
4981.803641	-116.986565	66.946808	14.760372
4981.806980	-116.928108	67.472824	14.059029
4981.810313	-116.635887	66.771484	15.227936
4981.813640	-116.752785	66.654587	15.753944
4981.816975	-116.402107	66.537697	14.292812
4981.820346	-115.759209	66.362358	14.234364
4981.823640	-116.460548	66.420807	14.292812
4981.826974	-116.051430	65.719467	13.883694
4981.830312	-117.395668	66.596146	13.357685
4981.833636	-117.512566	65.894798	13.825249
4981.836968	-116.635887	65.602570	13.533020
4981.840304	-116.343666	65.018120	13.591465
4981.843639	-117.512566	64.959671	14.234364
4981.846969	-117.337227	64.725891	14.000584
4981.850301	-119.149040	64.959671	14.117474
4981.853678	-119.558159	64.141434	13.942139
4981.856974	-119.207481	64.725891	14.526592
4981.860302	-119.675041	64.141434	14.234364
4981.863680	-119.733482	63.849209	15.403271
4981.866967	-120.201057	64.141434	15.227936
4981.870304	-121.486855	64.199883	15.111046
4981.873640	-122.012856	63.907654	15.870834
4981.876968	-122.246635	63.732319	16.396847
4981.880300	-123.181755	64.199883	16.689068
4981.883634	-123.824669	64.375214	16.046173
4981.886969	-124.584465	64.725891	17.390415
4981.890304	-125.110451	65.193451	18.208649
4981.893633	-127.156059	65.427231	18.617767
4981.896970	-127.272942	65.427231	18.500877
4981.900304	-128.266525	65.836349	18.442429
4981.903633	-129.026306	66.479248	19.494446
4981.906977	-130.955002	66.303917	20.195789
4981.910301	-131.656342	66.596146	20.312679
4981.913630	-132.942154	67.414375	21.540035
4981.916966	-133.234375	67.589714	21.364700
4981.920299	-134.286392	68.232605	22.124489
4981.923630	-135.396851	68.933952	22.358269
4981.926969	-136.273529	69.050842	23.234951
4981.930302	-137.500885	69.752197	24.111629
4981.933630	-138.143784	70.278198	24.170078
4981.936966	-139.371140	70.862656	25.280537
4981.940298	-140.247818	71.505554	25.455875
4981.943627	-140.890717	71.563995	26.683224
4981.946968	-141.416718	72.908241	28.319695
4981.950319	-143.637650	73.375809	27.501461
4981.954922	-146.092346	73.960258	28.670364
4981.958387	-147.611938	74.778488	30.073063
4981.961712	-149.482178	75.421387	31.066624
4981.965014	-151.410873	75.070717	31.592640
4981.968354	-153.164230	76.414963	32.644657
4981.971681	-153.865585	77.174744	32.819988
4981.974999	-155.911163	77.233200	34.573345
4981.978354	-157.606079	77.350082	35.157803
4981.981652	-160.060791	77.876099	36.735828
4981.984610	-161.814148	78.752777	38.372295
4981.987892	-163.509064	78.518997	39.190533
4981.991558	-166.139114	78.460541	41.294567
4981.994515	-168.243134	79.571014	41.762127
4981.997822	-171.106949	79.571014	44.099941
4982.001200	-173.970795	80.623032	46.087078
4982.004499	-175.256577	81.265930	47.489773
4982.007887	-178.237289	81.967270	50.295155
4982.011209	-182.620682	83.077728	51.931622
4982.014488	-184.958496	83.662186	54.035656
4982.017800	-186.770309	83.428406	55.789013
4982.021131	-188.757462	84.889542	58.360607
4982.024500	-192.497971	85.649323	60.464642
4982.027827	-195.537109	86.759796	63.562244
4982.031248	-198.517838	87.811813	66.192291
4982.034579	-201.498550	88.688492	68.763885
4982.037868	-205.706619	89.682053	71.686142
4982.041139	-207.693756	90.734070	75.660431
4982.044502	-210.382248	91.844543	79.400940
4982.047833	-214.414978	93.188782	81.797195
4982.051159	-217.746353	94.591461	85.888367
4982.054553	-221.253082	95.760376	88.752197
4982.057896	-223.415558	96.987732	92.609573
4982.061240	-226.922256	98.215088	96.057861
4982.064465	-230.429001	100.026886	99.856812
4982.067795	-234.929306	101.546463	103.538864
4982.071135	-237.851578	102.481583	107.630035
4982.074487	-242.059616	103.708939	111.019867
4982.077833	-246.092361	105.696091	114.643478
4982.081219	-250.709518	106.689651	119.377563
4982.084559	-254.216263	108.033905	122.475159
4982.087843	-257.664520	108.910583	128.144348
4982.091128	-261.814148	109.202805	134.105774
4982.094455	-266.080658	110.722382	139.190536
4982.097821	-270.347168	111.540619	143.573929
4982.101176	-275.315002	112.651077	148.424896
4982.104562	-279.172394	113.410873	153.801865
4982.107875	-283.789581	113.995316	160.230850
4982.110779	-288.874329	114.755112	167.770309
4982.114457	-291.855042	115.631790	172.562836
4982.117794	-297.407379	115.456451	179.751602
4982.120706	-302.901215	116.099350	186.122147
4982.124038	-308.687317	116.450027	194.012268
4982.127369	-313.012268	116.859146	202.369965
4982.130718	-317.746338	117.618942	209.850967
4982.134056	-323.473969	117.151382	218.500870
4982.137393	-329.260071	117.735825	227.209229
4982.140729	-335.338379	117.092926	236.385132
4982.144079	-340.364685	118.261841	246.320862
4982.147363	-345.858551	117.735825	255.964355
4982.150696	-351.469299	117.852722	266.718292
4982.154034	-358.307404	117.618942	278.991821
4982.157370	-363.509064	117.969604	289.161316
4982.160696	-368.827576	118.203384	299.506134
4982.164037	-373.970764	118.144943	312.597900
4982.167375	-378.997070	118.028046	325.222076
4982.170722	-385.133820	116.976044	339.833405
4982.174084	-389.867920	117.092926	352.516083
4982.177395	-393.783752	117.151382	366.952057
4982.180695	-400.212738	116.625366	380.745178
4982.184025	-405.005249	116.216248	396.057861
4982.187378	-408.219757	116.099350	412.714783
4982.190695	-411.492706	115.164230	426.215668
4982.194024	-415.934540	113.936874	442.288116
4982.197373	-419.967255	113.761536	460.347748
4982.200696	-422.421967	113.060196	475.601959
4982.204061	-425.519592	111.482178	492.960236
4982.207389	-427.974304	110.021042	511.604340
4982.210729	-431.247223	108.092346	526.858582
4982.214028	-433.994141	105.929871	544.625977
4982.217390	-433.818787	103.767380	561.516663
4982.220695	-436.156647	100.845123	581.621887
4982.224018	-436.448853	97.572174	597.694336
4982.227353	-437.208618	93.539444	618.676208
4982.230699	-436.857971	89.915833	635.683838
4982.234025	-437.208618	85.649323	655.789062
4982.237379	-437.676208	80.389252	672.796631
4982.240726	-435.104584	74.486267	694.012329
4982.243603	-433.701935	68.758621	711.312073
4982.246927	-432.240784	61.862068	732.644714
4982.250301	-428.500305	54.497952	750.119812
4982.253632	-425.519592	47.309177	771.744568
4982.256928	-419.324371	39.360607	791.031616
4982.260288	-414.999420	30.652248	809.617187
4982.263595	-411.025116	22.995909	830.365295
4982.266927	-404.245453	12.826417	852.749878
4982.270259	-397.115112	3.708942	869.757507
4982.273609	-389.692566	-5.700760	890.973145
4982.276930	-379.289307	-16.805376	907.454712
4982.280260	-370.113403	-26.507305	928.612000
4982.283596	-359.826996	-36.676800	943.807739
4982.286928	-346.618347	-47.080067	963.386963
4982.290260	-335.279938	-57.834019	980.452942
4982.293595	-321.369965	-68.646408	997.343689
4982.296927	-307.343048	-78.991226	1013.416199
4982.300258	-292.030396	-89.569839	1025.572754
4982.303613	-275.373474	-99.154877	1039.482788
4982.306921	-258.774963	-109.675049	1051.347168
4982.310258	-242.118057	-118.792511	1064.088257
4982.313589	-224.467575	-127.968445	1072.270630
4982.316921	-207.343079	-137.670364	1080.452881
4982.320315	-187.004105	-146.612503	1089.102783
4982.323589	-167.308014	-155.145538	1095.882446
4982.326929	-148.547058	-163.503220	1102.545288
4982.330261	-129.084747	-171.860901	1103.597290
4982.333592	-108.862648	-180.160156	1104.649292
4982.336927	-88.465225	-187.758041	1108.506714
4982.340256	-68.126244	-194.771484	1108.156006
4982.343589	-47.378136	-202.369385	1108.740479
4982.346940	-28.792521	-208.447708	1101.434814
4982.350254	-8.219755	-214.233795	1094.888916
4982.353589	10.190531	-222.240784	1090.797729
4982.356922	29.652834	-227.325546	1084.018066
4982.360258	48.413792	-233.988312	1080.452881
4982.363583	66.239624	-239.073074	1067.419556
4982.366924	83.773232	-244.800690	1056.665649
4982.370257	101.365280	-250.060791	1042.755737
4982.373582	117.613091	-254.502625	1030.832886
4982.376916	133.393326	-260.522522	1015.520203
4982.380257	148.998245	-263.970795	1000.908875
4982.383606	163.843369	-269.289307	986.297546
4982.386923	178.396255	-272.912903	968.705505
4982.390278	191.721786	-275.952087	954.970764
4982.393581	204.112213	-279.517242	934.690247
4982.396914	217.087067	-283.374634	913.825256
4982.400249	228.600800	-285.595581	895.648804
4982.403583	239.062531	-288.693176	875.543518
4982.406912	249.874924	-290.446533	857.893005
4982.410250	259.109283	-292.141449	834.573425
4982.413585	269.161896	-292.024536	814.292847
4982.416915	277.344238	-292.141449	791.674500
4982.420243	285.994171	-291.790771	771.510864
4982.423579	292.306244	-292.024536	750.821228
4982.426941	299.728821	-291.323212	728.611938
4982.430245	306.274689	-290.037415	708.506714
4982.433585	311.067230	-287.933380	688.050903
4982.436913	316.794861	-286.998260	666.016968
4982.440247	322.288727	-284.368225	646.145508
4982.443572	326.730591	-280.393921	625.163696
4982.446913	330.821747	-277.705444	606.168945
4982.450242	333.510223	-274.315613	585.479248
4982.453573	336.432495	-271.744019	567.945679
4982.456978	338.127411	-268.237274	548.600220
4982.460250	341.225037	-265.139679	531.183533
4982.463579	341.692596	-261.399170	512.130371
4982.466911	343.270599	-257.600250	493.720001
4982.470281	344.439514	-252.690826	476.361755
4982.473572	344.030396	-249.534790	463.620667
4982.476921	343.504395	-244.040924	446.788422
4982.480242	342.101715	-241.352417	428.436584
4982.483574	341.225037	-237.261261	416.104614
4982.486909	340.289886	-232.527191	401.493286
4982.490242	339.120972	-229.780258	387.875519
4982.493572	338.361176	-226.741089	373.264191
4982.496907	335.848053	-222.942139	362.101105
4982.500241	333.393372	-219.260086	348.366455
4982.503574	331.230865	-215.110474	336.209808
4982.506906	328.367035	-212.363541	325.046753
4982.510242	325.210999	-208.915268	312.597900
