time (s)	magX	magY	magZ
9139.384597	161.334320	91.833427	-50.972534
9139.387911	161.684967	92.125664	-52.024548
9139.391253	162.269440	92.827003	-52.199883
9139.394586	163.321442	93.177673	-52.609001
9139.397916	164.607239	93.469902	-53.193455
9139.401248	165.483917	94.346581	-54.888371
9139.404592	165.834595	95.457047	-54.888371
9139.407917	166.652832	96.158394	-55.998833
9139.411246	168.172424	96.684395	-56.407948
9139.414621	168.756866	97.502632	-57.459969
9139.417914	170.977783	98.554649	-57.985973
9139.421244	172.029800	99.898895	-59.447105
9139.424580	173.315613	100.541786	-61.025131
9139.427929	174.601410	101.360023	-62.018703
9139.431240	176.179428	102.295151	-63.304501
9139.434579	177.815903	103.873177	-65.583870
9139.439263	180.855072	106.152550	-68.155464
9139.442602	182.783752	107.555237	-70.142609
9139.445526	184.361786	108.724144	-71.194626
9139.448876	186.348907	109.834602	-73.123322
9139.452092	188.569855	110.886620	-74.526009
9139.455423	190.673889	112.932205	-76.630043
9139.458797	192.368805	114.159561	-79.786087
9139.462109	195.232605	115.328468	-81.013443
9139.465446	196.927521	116.263596	-83.000587
9139.468856	198.914673	117.666283	-85.338394
9139.471710	201.486267	119.068970	-87.150208
9139.475014	204.233185	119.594971	-89.604904
9139.478326	206.746338	120.646988	-92.118057
9139.481668	209.142609	122.108131	-94.806549
9139.484999	212.123322	123.569260	-97.670364
9139.488330	213.876678	124.738167	-100.183517
9139.491665	216.506714	125.614853	-103.456459
9139.494992	219.604309	127.309761	-105.911163
9139.497902	221.649902	128.478653	-108.365860
9139.501248	224.104614	130.173584	-111.989471
9139.504572	226.793121	131.225601	-114.502625
9139.507901	229.130920	132.978958	-117.541794
9139.511232	231.760956	134.323212	-120.288727
9139.514567	235.384583	135.725891	-122.977203
9139.517900	237.839294	137.362366	-126.191696
9139.521264	241.287537	139.466400	-129.815308
9139.524573	243.683807	141.044418	-133.672699
9139.527903	246.722961	143.148453	-137.530106
9139.531230	249.528351	145.077148	-140.803040
9139.534574	252.509064	147.473404	-144.718872
9139.537905	255.314423	149.577438	-149.394501
9139.541234	258.295135	151.389236	-154.829926
9139.544590	260.983643	154.077728	-158.511978
9139.547900	264.315033	156.181763	-163.538284
9139.551232	267.061951	158.753357	-168.739914
9139.554571	270.393341	160.857391	-173.766220
9139.557903	273.724731	163.662766	-179.669205
9139.561233	276.939209	165.766800	-186.156631
9139.564559	280.504395	168.630615	-192.059616
9139.567895	283.660431	171.202209	-197.728821
9139.571230	287.342499	174.066040	-204.976044
9139.574562	290.790771	176.403854	-211.112808
9139.577899	294.297485	178.624771	-219.061371
9139.581225	297.219757	181.196365	-226.717712
9139.584559	300.960266	184.177094	-234.490952
9139.587897	304.233215	186.573349	-243.374634
9139.591228	308.032135	188.969604	-250.972534
9139.594555	311.363525	191.015198	-259.739319
9139.597890	314.870239	193.119232	-268.097015
9139.601229	318.786072	195.573929	-277.857391
9139.604561	321.591461	197.970184	-286.741089
9139.607897	325.624176	199.489777	-296.910583
9139.611231	329.014008	201.476913	-306.904724
9139.614557	332.754517	203.697830	-317.483337
9139.617896	335.969025	204.983627	-327.360626
9139.621227	339.592621	207.263000	-339.049683
9139.624591	343.099365	209.250137	-349.920532
9139.627892	346.138519	210.419052	-361.083588
9139.631227	349.352997	211.587952	-372.538849
9139.634555	352.041473	213.282867	-384.461731
9139.637889	354.846863	214.451782	-396.969025
9139.641223	357.360016	215.679138	-409.768555
9139.645911	362.152527	218.776733	-434.958527
9139.648823	363.789001	219.361191	-449.277588
9139.652522	365.191711	221.231430	-463.187592
9139.655409	366.126831	222.049683	-476.571625
9139.658747	367.061951	222.400345	-491.592041
9139.662099	368.055511	224.095261	-505.443634
9139.665484	367.529510	225.439514	-519.704224
9139.668853	367.178833	225.673279	-535.192261
9139.672110	366.419067	226.316177	-551.556946
9139.675415	365.367035	226.666870	-566.635864
9139.678730	363.613678	226.783737	-582.533020
9139.681642	361.977203	227.426636	-599.073059
9139.684973	359.113373	227.485092	-615.788391
9139.688313	356.191101	227.075974	-632.328430
9139.691669	352.275269	227.309769	-649.569824
9139.695000	348.067230	226.374634	-666.109863
9139.698337	343.683807	225.147278	-682.942139
9139.701696	337.605469	223.744598	-700.008179
9139.704987	331.585632	222.341904	-718.944458
9139.707888	324.922852	219.594971	-737.004089
9139.711238	317.266510	216.906494	-753.427185
9139.714552	309.142578	213.691986	-771.954346
9139.717884	300.317383	210.302155	-790.481567
9139.721214	290.790771	205.684967	-806.612488
9139.724548	281.673309	201.360016	-825.198120
9139.727884	271.211548	195.281708	-841.913513
9139.731210	260.282288	189.495605	-859.622437
9139.734549	247.950317	182.482162	-875.168884
9139.737881	235.852142	175.644058	-892.468689
9139.741211	222.935699	168.922852	-907.313782
9139.744546	209.668610	160.331375	-922.626465
9139.747876	195.700165	152.032135	-936.185791
9139.751211	181.030396	143.440674	-950.095825
9139.754549	165.308594	134.147858	-962.953857
9139.757893	150.814148	124.153717	-974.759766
9139.761227	134.390991	113.984222	-985.689026
9139.764543	118.552307	104.165405	-996.326111
9139.767874	101.544708	93.353012	-1005.326721
9139.771206	84.361778	82.832848	-1013.275208
9139.774545	66.945061	71.962006	-1020.756226
9139.777875	48.593220	61.032730	-1025.431885
9139.781212	30.942722	50.337227	-1030.458130
9139.784572	12.766220	39.057278	-1033.672729
9139.787877	-4.650497	28.654003	-1036.770386
9139.791203	-23.762123	17.140270	-1038.640625
9139.794544	-42.230858	6.386325	-1038.991211
9139.797890	-60.115135	-4.659847	-1037.062500
9139.801212	-79.635887	-14.303331	-1035.426025
9139.804541	-97.461708	-24.355932	-1032.153198
9139.807873	-115.345985	-34.174751	-1029.756836
9139.811208	-133.756287	-44.344238	-1023.386292
9139.814532	-151.991241	-53.753944	-1016.723511
9139.817877	-169.583282	-63.338982	-1008.248962
9139.821210	-187.116913	-72.514900	-999.716003
9139.824591	-203.715363	-81.515488	-989.371094
9139.827880	-219.904724	-90.106956	-978.500244
9139.831201	-234.866760	-98.698418	-966.343689
9139.834536	-250.880798	-107.114540	-953.661011
9139.837872	-266.076569	-115.296913	-939.984802
9139.841203	-280.337250	-123.479256	-925.373413
9139.844531	-293.545898	-130.668030	-910.060791
9139.847866	-306.812988	-138.616592	-893.462280
9139.851197	-318.969604	-145.571609	-875.987122
9139.854533	-331.126251	-152.760376	-859.564026
9139.857887	-341.704865	-159.715378	-841.212158
9139.862563	-360.232025	-172.281128	-804.274658
9139.865454	-369.115692	-178.593216	-785.805908
9139.868801	-376.421387	-183.794876	-766.752747
9139.872142	-383.259521	-189.171829	-747.816467
9139.875380	-388.811798	-193.905914	-727.945007
9139.878716	-393.955017	-199.166000	-709.476318
9139.882066	-398.455292	-203.257172	-689.020447
9139.885402	-402.078888	-206.939240	-669.733459
9139.888731	-405.059631	-210.329041	-650.914062
9139.891657	-407.222107	-213.894211	-631.568665
9139.894982	-409.618347	-216.290482	-612.515503
9139.898308	-411.079468	-218.394501	-593.228516
9139.901655	-410.553467	-219.855652	-575.344177
9139.904966	-411.196381	-221.492111	-556.641724
9139.908286	-410.553467	-222.368805	-539.634094
9139.911615	-410.495026	-223.187027	-523.269409
9139.914959	-409.443024	-223.771484	-505.209839
9139.918279	-408.215698	-223.888382	-488.786652
9139.921618	-406.462311	-223.713028	-472.363525
9139.924523	-404.592072	-223.362366	-456.291077
9139.927859	-402.429596	-222.193466	-440.978394
9139.931194	-399.799561	-221.842773	-426.250153
9139.934526	-398.104645	-220.147858	-411.521912
9139.937878	-394.539459	-218.686737	-396.033905
9139.941223	-391.675629	-217.167145	-382.591461
9139.944534	-388.461121	-215.589127	-368.798370
9139.947857	-384.662170	-212.783752	-354.771484
9139.951196	-380.863251	-211.497971	-342.322632
9139.954523	-377.239624	-208.809479	-329.523102
9139.957859	-373.499115	-205.945648	-317.074249
9139.961187	-370.050842	-203.607834	-304.683807
9139.964520	-365.550537	-201.094696	-293.345398
9139.967857	-361.576294	-198.172409	-282.474579
9139.971191	-356.959076	-195.250137	-272.012848
9139.974524	-352.751038	-192.795456	-261.142029
9139.977854	-347.607849	-190.165421	-250.621872
9139.981204	-343.282898	-187.126251	-240.218582
9139.984517	-338.782593	-184.671539	-230.925781
9139.987855	-334.399200	-182.392181	-221.048523
9139.991188	-329.314453	-179.177673	-212.632385
9139.994520	-324.580383	-176.781418	-203.573349
9139.997854	-319.495636	-174.502045	-194.689667
9140.001187	-315.346008	-172.105789	-186.741104
9140.004544	-310.085907	-170.177094	-178.441849
9140.007871	-304.825836	-167.547043	-170.727066
9140.011191	-299.858002	-164.917023	-163.830505
9140.014522	-295.240814	-163.222107	-156.700180
9140.017848	-290.389832	-160.708954	-150.037415
9140.021187	-286.181793	-158.955582	-144.368210
9140.024552	-281.681488	-156.033310	-138.231445
9140.027852	-276.246063	-154.279968	-131.510223
9140.031189	-272.622437	-152.877274	-126.659271
9140.034514	-267.479248	-150.597900	-121.574524
9140.037848	-263.563416	-148.435425	-116.022217
9140.041178	-259.063110	-146.389832	-112.047928
9140.044519	-255.264191	-144.402695	-106.670959
9140.047850	-251.348358	-142.883118	-103.222679
9140.051188	-247.432495	-141.071304	-99.306839
9140.054519	-243.575104	-138.558167	-94.280540
9140.057849	-239.250153	-136.512573	-91.533600
9140.061181	-236.094116	-134.934540	-87.150208
9140.064515	-232.587372	-133.122742	-83.409698
9140.067869	-229.197540	-131.427826	-80.955002
9140.072496	-223.236115	-127.395088	-74.409119
9140.075836	-220.138519	-125.641731	-71.253067
9140.079149	-216.514923	-124.355934	-68.564583
9140.082060	-213.884888	-121.725883	-65.876099
9140.085448	-211.371735	-120.673882	-63.421394
9140.088777	-207.923431	-118.336067	-60.557571
9140.092125	-205.585632	-116.933372	-59.096436
9140.095359	-202.429565	-115.296913	-55.940384
9140.098693	-200.267090	-113.017525	-53.193455
9140.102023	-197.052612	-111.147285	-51.615433
9140.105392	-195.182373	-109.919930	-50.212742
9140.108716	-192.201630	-108.166573	-48.108707
9140.112157	-190.506714	-106.530098	-46.063122
9140.115457	-187.642883	-105.478081	-44.017536
9140.118690	-185.246643	-104.075386	-41.679722
9140.121605	-183.610168	-103.140266	-38.991234
9140.124930	-181.155457	-100.802452	-37.179428
9140.128258	-178.934540	-100.276443	-36.010521
9140.131607	-176.304504	-98.756866	-34.257160
9140.134955	-174.317352	-97.120399	-32.153130
9140.138259	-172.388672	-96.652832	-31.101112
9140.141624	-170.459961	-94.724136	-29.756868
9140.144946	-167.654602	-93.847458	-28.003508
9140.148309	-165.608978	-93.146118	-27.068382
9140.151608	-164.440094	-92.035645	-26.133257
9140.154535	-162.569855	-91.392746	-24.613676
9140.157836	-160.290466	-90.574524	-22.977207
9140.161173	-158.595551	-90.223839	-23.327879
9140.164507	-157.368195	-88.938049	-21.106956
9140.167837	-155.030396	-88.119812	-19.879602
9140.171170	-154.329041	-87.476913	-19.178259
9140.174502	-152.283478	-86.483345	-18.593805
9140.177843	-151.056122	-86.308006	-17.834017
9140.181166	-149.478088	-85.489769	-16.606665
9140.184502	-148.367615	-85.197540	-16.372883
9140.187833	-147.666290	-84.262413	-16.022211
9140.191171	-146.029816	-83.619514	-15.203974
9140.194499	-144.218018	-83.561066	-13.918177
9140.197852	-143.750458	-82.742836	-13.625950
9140.201170	-142.756866	-82.392159	-13.333723
9140.204494	-141.587952	-81.515488	-13.450615
9140.207831	-139.893036	-80.580360	-11.931036
9140.211189	-139.483917	-80.638809	-12.047926
9140.214501	-138.724152	-79.820564	-10.995911
9140.217832	-137.555237	-79.119225	-10.236120
9140.221161	-137.379913	-78.359444	-10.469902
9140.224498	-136.327881	-77.950317	-10.236120
9140.227832	-135.977203	-78.184097	-9.593222
9140.231161	-134.808289	-77.248970	-9.476332
9140.234495	-134.983643	-76.898300	-8.774984
9140.237829	-134.048523	-75.787842	-8.424313
9140.241185	-133.580963	-75.787842	-8.482758
9140.244493	-133.171844	-75.203392	-7.781414
9140.247833	-131.944489	-74.735825	-7.489189
9140.251164	-131.593811	-73.859146	-7.956749
9140.254495	-131.301575	-73.450027	-6.846287
9140.257830	-130.892456	-73.508469	-6.320282
9140.261162	-130.366455	-73.099358	-6.612507
9140.264497	-129.957336	-72.456451	-5.911163
9140.267827	-129.431335	-72.105782	-6.378727
9140.271162	-129.197540	-72.573349	-5.911163
9140.274497	-128.729980	-72.690239	-5.618938
9140.277828	-128.379303	-71.988892	-5.502045
9140.281210	-127.035072	-72.164230	-5.151375
9140.284508	-127.677971	-72.047340	-5.326710
9140.287821	-126.684395	-71.404442	-5.034485
9140.291159	-126.216835	-71.930450	-5.034485
9140.294490	-126.158379	-71.579781	-4.859146
9140.297823	-125.749260	-71.872002	-4.683811
9140.301153	-125.632378	-71.696671	-4.566921
9140.304492	-125.749260	-71.872002	-5.209820
9140.309172	-125.398598	-72.164230	-4.800701
9140.312519	-125.457039	-72.047340	-4.391586
9140.315458	-125.164818	-72.281120	-4.859146
9140.318770	-125.983055	-72.924019	-4.976040
9140.322069	-125.340157	-72.398010	-4.917591
9140.325337	-125.223259	-72.398010	-5.677383
9140.328677	-126.333733	-73.274689	-5.326710
9140.332003	-125.807716	-73.274689	-5.092930
9140.335363	-126.567513	-72.924019	-4.917591
9140.338696	-126.216835	-73.450027	-5.326710
9140.341600	-127.385735	-73.859146	-5.677383
9140.344965	-127.677971	-74.151375	-5.618938
9140.348292	-128.320862	-73.976036	-5.735828
9140.351589	-128.963745	-73.800697	-6.670952
9140.354905	-129.372894	-74.560486	-7.313850
9140.358281	-129.957336	-74.502045	-7.255405
9140.361569	-131.009369	-75.261833	-8.015194
9140.364908	-131.067810	-74.911156	-8.482758
9140.368243	-132.002930	-75.437172	-8.599648
9140.371155	-132.762695	-75.612503	-8.891876
9140.374483	-133.171844	-76.138512	-8.891876
9140.377817	-134.457611	-76.255402	-9.593222
9140.381150	-134.983643	-76.547630	-10.002340
9140.384482	-135.684967	-77.248970	-10.411457
9140.387810	-136.444763	-77.424309	-10.119230
9140.391200	-137.672119	-76.839859	-12.281708
9140.394480	-138.315033	-77.658096	-11.755699
9140.397808	-138.841034	-78.827003	-11.989481
9140.401169	-139.483917	-78.827003	-12.281708
9140.404478	-140.419067	-78.768555	-12.749271
9140.407814	-141.412628	-79.762131	-13.275278
9140.411152	-142.581543	-80.521912	-13.275278
9140.414477	-142.932190	-80.638809	-13.509060
9140.417814	-144.101105	-81.340149	-14.385740
9140.421145	-144.744019	-81.749268	-16.022211
9140.424477	-146.029816	-82.450607	-15.613092
9140.427809	-147.023376	-82.918175	-16.139101
9140.431141	-147.841614	-84.028633	-16.022211
9140.434476	-149.770325	-85.372887	-17.658680
9140.437805	-150.939209	-86.308006	-18.827587
9140.441144	-152.575684	-86.775574	-19.236704
9140.444491	-153.803040	-87.944481	-19.762712
9140.447808	-155.264191	-88.938049	-20.288719
9140.451142	-155.439514	-90.165398	-21.866745
9140.454514	-158.127991	-90.516075	-21.983637
9140.457821	-159.238434	-91.977211	-23.386324
9140.461145	-161.459381	-93.087669	-24.672121
9140.464474	-162.803619	-93.847458	-25.198132
9140.467812	-164.557007	-94.490356	-26.776155
9140.471135	-166.661011	-95.893044	-28.412624
9140.474476	-168.414368	-96.769722	-29.581532
9140.477805	-170.459961	-98.347755	-30.399767
9140.481137	-172.096436	-99.341316	-31.393337
9140.484471	-174.375824	-100.802452	-33.555817
9140.487824	-176.596741	-102.322037	-34.841614
9140.491135	-178.291656	-103.140266	-37.004093
9140.494471	-181.506134	-104.601402	-38.582115
9140.497805	-183.259491	-105.302742	-40.335476
9140.501139	-186.006439	-106.939217	-42.907074
9140.504469	-188.402679	-107.289894	-44.894215
9140.507808	-190.857391	-108.634132	-46.647575
9140.511134	-193.838104	-110.387489	-49.452953
9140.514473	-196.701935	-111.381065	-51.089424
9140.517821	-199.215057	-112.959084	-53.368790
9140.521193	-201.962006	-113.835777	-55.823494
9140.525742	-207.397430	-116.641151	-60.557571
9140.529112	-210.144379	-118.277611	-62.544712
9140.532494	-213.417328	-120.089424	-65.817650
9140.535388	-216.631805	-121.316765	-68.739914
9140.538730	-220.080078	-122.719460	-71.369957
9140.542061	-222.300995	-124.472832	-74.116898
9140.545396	-226.099945	-126.050850	-77.565170
9140.548648	-229.197540	-128.037994	-80.955002
9140.551984	-232.295166	-129.908234	-83.818817
9140.555317	-235.743439	-131.895386	-86.974869
9140.558663	-239.367065	-133.940979	-90.832260
9140.562035	-242.230865	-136.746353	-94.572762
9140.564920	-246.438934	-138.791946	-98.663940
9140.568242	-249.770325	-140.720627	-103.690239
9140.571574	-253.919922	-143.409119	-108.015198
9140.574905	-257.601990	-145.513153	-113.099945
9140.578219	-261.400940	-147.850967	-118.126236
9140.581546	-264.498535	-150.130341	-121.808304
9140.584901	-268.823517	-152.701935	-127.477493
9140.588219	-273.031555	-155.331970	-132.854477
9140.591124	-276.362976	-158.254242	-138.874344
9140.594458	-279.986572	-161.176514	-144.426651
9140.597790	-284.136169	-163.105209	-150.329636
9140.601128	-288.987152	-165.676804	-157.050858
9140.604476	-293.019897	-167.780823	-164.181183
9140.607788	-297.578613	-170.703110	-170.843948
9140.611130	-301.611359	-173.450027	-178.208069
9140.614458	-305.644073	-175.904739	-185.922852
9140.617790	-310.787262	-177.891876	-194.338989
9140.621140	-316.281128	-180.814163	-202.755112
9140.624472	-319.963196	-182.859741	-210.937469
9140.627792	-325.223267	-185.080658	-220.697845
9140.631123	-329.548218	-187.184677	-229.639984
9140.634457	-334.340729	-189.522522	-239.867920
9140.637795	-339.250153	-191.684967	-248.167160
9140.641120	-344.393341	-193.263016	-258.804199
9140.644457	-348.484528	-195.542374	-269.382812
9140.647799	-353.160156	-197.704849	-280.955017
9140.651125	-357.894196	-199.808899	-291.942719
9140.654455	-362.862091	-201.153122	-304.742279
9140.657787	-367.187042	-202.497375	-316.022217
9140.661125	-371.511993	-204.426056	-328.704865
9140.664450	-376.129181	-206.588547	-341.738159
9140.667781	-379.928131	-207.582123	-355.180603
9140.671121	-383.727051	-209.452377	-369.207489
9140.674453	-387.467560	-210.679733	-383.409698
9140.677784	-391.032715	-212.199295	-397.378143
9140.681117	-393.896545	-214.186447	-412.457031
9140.684474	-396.585052	-214.770905	-428.120392
9140.687785	-399.916443	-216.465820	-444.017548
9140.691134	-401.903564	-217.926941	-459.037994
9140.694455	-403.364716	-218.920532	-475.344238
9140.697785	-405.001190	-220.323212	-492.351837
9140.701113	-406.929901	-220.732315	-509.008759
9140.704449	-407.748108	-221.141449	-527.535950
9140.707781	-408.507904	-222.018112	-545.712402
9140.711115	-408.274109	-222.193466	-562.018677
9140.714446	-407.865021	-222.193466	-581.539429
9140.717786	-407.455902	-222.602570	-600.008179
9140.721113	-405.936310	-221.959671	-618.827576
9140.724450	-404.124512	-221.141449	-638.114502
9140.727813	-401.786682	-220.206329	-656.758545
9140.731108	-398.981293	-218.219177	-676.513123
9140.734444	-395.533020	-216.699585	-697.319702
9140.737776	-391.149628	-214.946228	-715.729980
9140.741112	-386.240204	-211.205734	-735.016968
9140.744441	-380.980133	-207.874359	-754.479248
9140.748739	-368.180573	-199.166000	-791.825806
9140.751983	-360.758026	-194.431915	-810.645203
9140.755294	-352.751038	-187.944473	-828.529480
9140.758666	-344.042694	-181.807724	-847.056641
9140.761977	-334.457642	-174.911163	-864.648682
9140.765315	-325.106384	-168.014618	-881.305664
9140.768702	-314.703094	-159.949158	-897.261230
9140.772135	-302.663361	-151.065475	-913.392151
9140.775356	-290.798950	-142.240219	-928.178833
9140.778210	-278.408539	-133.122742	-942.147217
9140.781539	-265.258331	-123.303902	-956.174133
9140.784860	-251.348358	-113.309761	-968.447693
9140.788193	-236.678558	-102.906487	-980.019836
9140.791532	-220.781433	-92.094093	-991.066040
9140.794865	-205.351837	-80.814140	-1000.534119
9140.798224	-189.630035	-71.170654	-1007.489197
9140.801580	-172.856232	-59.773811	-1016.022156
9140.804884	-155.673279	-48.902977	-1021.983582
9140.807795	-138.431915	-37.447693	-1027.185303
