time (s)	magX	magY	magZ
3710.240815	106.040916	-34.806545	-4.059031
3710.244146	109.138512	-35.683224	-4.000586
3710.247487	111.534775	-36.735241	-2.130331
3710.250811	113.580368	-37.436584	-1.545879
3710.254149	116.035072	-38.254818	-0.669197
3710.257478	118.489777	-39.131504	0.265926
3710.260812	121.412041	-40.066628	0.441265
3710.264143	123.808304	-41.235535	1.376389
3710.267476	127.548805	-42.229107	2.311516
3710.270807	129.652832	-42.930450	3.071304
3710.274143	132.165985	-45.502048	4.707771
3710.277483	135.731140	-46.086498	5.467564
3710.280803	138.770309	-47.898304	7.279369
3710.284146	142.277023	-48.541203	8.272942
3710.287479	144.965515	-49.534779	9.675629
3710.290808	148.706009	-50.645237	10.844536
3710.294135	152.855637	-52.573933	12.656342
3710.297480	156.771484	-53.216831	14.117474
3710.300800	160.336639	-54.736408	16.396847
3710.304142	165.070709	-55.788425	17.507305
3710.307469	169.337219	-57.191113	19.436005
3710.310801	173.253067	-58.769138	22.066048
3710.314139	178.630035	-59.938046	24.812973
3710.317470	182.604324	-61.165401	27.910580
3710.320832	188.682632	-62.801868	30.949734
3710.324134	193.416702	-64.146118	33.813564
3710.327472	199.144363	-65.315018	37.729397
3710.330807	204.988892	-67.419052	41.820576
3710.334142	210.541199	-69.055527	44.859730
3710.337474	216.619507	-70.984222	48.366451
3710.340804	223.340729	-72.503799	53.743420
3710.344138	230.880173	-73.848038	59.295734
3710.347469	236.958481	-75.192276	65.490936
3710.350801	244.556381	-77.646988	70.517242
3710.354152	251.511383	-79.458801	77.121567
3710.357468	259.518433	-80.978378	83.433655
3710.360799	267.116302	-83.257751	91.732895
3710.364174	274.012878	-85.361786	99.915253
3710.367464	282.896545	-87.232040	106.811798
3710.370799	290.786682	-89.277618	116.279953
3710.374136	298.735260	-91.381653	126.274094
3710.377470	306.859161	-93.544128	135.976028
3710.380801	315.041504	-95.998825	146.437759
3710.384133	322.580963	-98.278198	158.419052
3710.387466	331.990662	-100.616013	170.166550
3710.390797	340.699036	-102.603149	182.440079
3710.394155	349.524261	-105.876099	197.051422
3710.397462	357.122162	-108.038574	209.909409
3710.400795	368.168335	-110.493286	223.994751
3710.404132	375.590881	-113.181763	240.008789
3710.407464	385.526611	-115.636475	256.724121
3710.410791	394.702515	-117.389832	273.614838
3710.414136	404.053772	-119.961426	292.843353
3710.417460	414.106384	-121.247223	313.065460
3710.420812	422.814758	-123.526596	334.222656
3710.425406	440.289886	-126.682648	377.004700
3710.428753	448.355347	-128.436005	399.155426
3710.432096	455.310364	-129.546478	423.234955
3710.435480	462.499115	-130.014038	450.119781
3710.438849	470.856842	-129.078903	475.835754
3710.442187	477.578033	-129.897141	503.655731
3710.445481	484.591461	-128.962006	532.761597
3710.448845	489.851532	-127.442444	561.984253
3710.452229	494.118103	-125.864410	592.375854
3710.455067	497.040344	-123.877274	623.760986
3710.458805	499.787262	-121.130325	654.094116
3710.461720	501.949768	-118.149628	687.758606
3710.465046	500.254852	-113.941559	721.306274
3710.468727	499.670380	-108.856812	757.951477
3710.472105	496.865021	-102.953827	792.784912
3710.475012	492.773834	-97.167740	828.027466
3710.478333	486.169495	-90.855637	862.744019
3710.481792	478.630035	-83.549973	896.525452
3710.485070	466.824066	-75.075394	932.294006
3710.488377	457.531281	-66.893051	966.017029
3710.491638	441.809479	-56.723553	998.571106
3710.495006	425.970795	-47.430740	1031.125000
3710.498290	407.560486	-36.735241	1061.341309
3710.501661	388.273529	-25.396843	1090.856201
3710.505003	365.187622	-13.649328	1115.636963
3710.508403	341.984802	-2.252483	1141.820557
3710.511713	315.859741	11.073057	1163.620605
3710.515009	288.857971	24.457043	1184.076538
3710.518307	261.096436	38.016365	1199.798340
3710.521627	231.289291	50.874344	1214.994141
3710.525027	199.202789	65.310349	1228.670288
3710.528330	167.466965	78.928116	1234.690186
3710.531742	134.912918	92.779663	1238.430664
3710.535055	101.715950	106.748093	1242.112793
3710.538391	67.934540	119.547638	1239.073608
3710.541711	35.146698	134.042084	1235.566895
3710.544974	1.774401	146.198700	1232.001709
3710.548298	-31.422564	159.115128	1221.130981
3710.551657	-63.684395	171.505554	1207.279419
3710.554998	-94.835770	183.720627	1192.668091
3710.558421	-124.292229	195.059036	1176.887817
3710.561716	-153.924026	205.812973	1158.243652
3710.565045	-181.451797	216.391586	1134.924072
3710.568337	-207.635300	226.385727	1113.942139
3710.571626	-230.896561	234.977219	1088.167725
3710.574962	-254.508499	244.620697	1062.159546
3710.578310	-276.250122	252.101700	1035.683838
3710.581675	-295.420227	258.530701	1004.064880
3710.585054	-313.596741	264.725891	976.887817
3710.588371	-330.136749	269.693756	944.976685
3710.591675	-346.852112	275.187592	912.071960
3710.594957	-359.710114	279.103424	882.557068
3710.598290	-371.632935	282.668610	851.171814
3710.601624	-383.848022	285.181763	822.825867
3710.604984	-392.322601	287.285797	787.758667
3710.608313	-399.803619	288.513153	758.009949
3710.611292	-406.291046	288.688477	727.501465
3710.614557	-411.434235	287.928680	697.109863
3710.617892	-414.940948	286.701324	666.309204
3710.621196	-416.928131	286.409119	635.917603
3710.624555	-418.564575	283.603729	608.389832
3710.627862	-418.798370	280.681458	579.810120
3710.631197	-418.389252	277.934540	553.100525
3710.634533	-417.570984	274.194031	526.157227
3710.637859	-415.466949	269.459961	500.090546
3710.641194	-413.713623	265.251892	474.666840
3710.644559	-408.921082	260.868500	452.749847
3710.647897	-406.115692	255.374634	428.027466
3710.651218	-401.206268	250.874344	405.993561
3710.654629	-396.121582	245.848022	385.362366
3710.657869	-393.082397	239.828171	365.374054
3710.661192	-386.653412	233.749863	345.970184
3710.664520	-380.049072	228.723541	327.501465
3710.667877	-375.256561	223.054352	308.682037
3710.671187	-368.184692	218.203400	293.194061
3710.674533	-362.515472	211.891281	277.296906
3710.677859	-355.209808	207.157211	261.458191
3710.681212	-348.430145	201.195786	248.132660
3710.684552	-342.351807	196.169495	234.807129
3710.687889	-334.520142	190.675613	221.598480
3710.691274	-328.617157	185.883102	209.675613
3710.694521	-320.025696	180.447693	198.687897
3710.697881	-313.713593	176.298065	187.407944
3710.701199	-307.109283	171.680878	179.225601
3710.704524	-300.621857	166.713028	168.997665
3710.707851	-293.316162	162.037399	158.068375
3710.711197	-285.426056	158.063110	150.119812
3710.714524	-279.113953	154.439499	142.054352
3710.717853	-272.743408	150.465225	133.813553
3710.721213	-266.255981	146.140274	126.683228
3710.724544	-259.943909	143.042664	119.845123
3710.727876	-253.631790	139.009933	113.065460
3710.731201	-246.735245	135.795441	107.396255
3710.734132	-242.644058	132.054932	101.493286
3710.737862	-234.344833	129.074219	94.655167
3710.741194	-229.610764	125.859726	89.745773
3710.744097	-224.058456	122.879013	84.602585
3710.747422	-219.149033	119.781418	79.400940
3710.750761	-214.239639	116.800705	74.082413
3710.754094	-209.505554	113.995316	70.283463
3710.757431	-205.005264	111.189941	66.367615
3710.760754	-199.219177	109.027466	61.341320
3710.764100	-195.478668	106.397430	57.834606
3710.767427	-190.569275	103.592056	54.269436
3710.770763	-186.536545	100.962006	50.587376
3710.774096	-182.854477	98.215088	46.379314
3710.777430	-177.711288	96.753952	44.216831
3710.780756	-173.970795	93.773224	41.469906
3710.784092	-170.464050	91.610748	37.554066
3710.787423	-166.372894	89.682053	36.151371
3710.790777	-162.573944	87.870255	32.878437
3710.794095	-158.774994	85.415543	30.774403
3710.797429	-155.326721	83.428406	28.378143
3710.800752	-152.696671	81.265930	26.098770
3710.804095	-150.241959	79.571014	23.877850
3710.807452	-146.501465	78.402100	21.832264
3710.810753	-143.462311	76.064285	20.078899
3710.814093	-140.189362	74.018700	18.500877
3710.817421	-137.734665	72.499123	16.805962
3710.820755	-135.221512	71.447105	15.344826
3710.824086	-132.649918	69.985977	14.234364
3710.827424	-130.779663	67.998825	13.240795
3710.830753	-128.032745	66.537697	12.188778
3710.834087	-125.987144	65.485687	11.312099
3710.837415	-123.181755	64.433662	10.084747
3710.840755	-121.895973	63.381649	8.448277
3710.844083	-119.499702	62.212742	7.922268
3710.847420	-117.571007	61.043835	7.454708
3710.850761	-115.817650	59.641148	6.052017
3710.854139	-113.479836	59.115139	5.584454
3710.857417	-111.784920	58.647575	4.766216
3710.860753	-109.973122	57.712448	4.357101
3710.864098	-108.044426	56.134426	3.246639
3710.867421	-106.232613	55.900646	2.369961
3710.870750	-104.011696	54.673290	1.668613
3710.874083	-103.602577	54.088837	2.311516
3710.877418	-102.024544	52.978374	0.324371
3710.880741	-101.030983	52.160141	0.441265
3710.884082	-98.634712	51.458797	-0.084743
3710.887411	-97.232033	51.108124	-0.902981
3710.890746	-95.361778	50.173000	-1.428986
3710.894083	-93.549965	49.880772	-2.130331
3710.897412	-92.614838	49.179428	-2.948568
3710.900746	-91.504379	47.893631	-2.948568
3710.904080	-89.984810	47.542957	-4.117476
3710.907413	-88.699005	46.783165	-4.000586
3710.910746	-87.646980	46.081821	-3.825249
3710.914080	-86.068962	45.731148	-4.234367
3710.917410	-85.016953	45.029808	-6.046171
3710.920746	-84.198715	44.328461	-6.279953
3710.924102	-83.497368	43.685562	-6.104618
3710.927420	-82.153130	43.744011	-5.987726
3710.930745	-80.633545	42.984219	-6.338398
3710.934075	-80.049095	42.399765	-7.215078
3710.937425	-79.873764	42.399765	-7.098188
3710.940743	-79.172417	41.639977	-7.390415
3710.944075	-78.237282	41.347748	-7.448860
3710.947416	-77.360603	40.587959	-6.572180
3710.950746	-77.009941	39.477497	-7.390415
3710.954077	-76.951492	39.594391	-8.091759
3710.957406	-76.016365	38.834599	-8.383986
3710.960746	-75.607254	39.126823	-7.741087
3710.964074	-75.139687	38.367035	-7.857977
3710.967428	-74.789009	38.367035	-8.383986
3710.970742	-73.853882	37.841026	-8.267094
3710.974070	-73.737000	37.548801	-8.676212
3710.977409	-73.269440	37.315022	-8.383986
3710.980739	-72.568092	36.905903	-7.331968
3710.984069	-72.684975	36.847458	-8.617767
3710.987403	-71.866753	36.438339	-8.851547
3710.990735	-72.158966	36.789013	-8.033314
3710.994072	-71.691406	36.438339	-8.325541
3710.997415	-71.691406	36.379898	-7.331968
3711.000747	-71.106956	36.263004	-8.150204
3711.004074	-70.756279	36.087669	-7.156633
3711.007405	-70.814728	35.678551	-7.682642
3711.010767	-70.990059	35.795441	-8.267094
3711.014070	-70.580948	35.912331	-7.799532
3711.017403	-69.996498	36.029221	-7.741087
3711.020728	-70.230278	35.970779	-7.273523
3711.024076	-70.171829	35.853889	-8.091759
3711.027403	-69.879601	35.970779	-8.091759
3711.030734	-69.587372	35.912331	-7.507305
3711.034071	-69.353592	35.444771	-8.325541
3711.037398	-69.295151	35.444771	-7.974869
3711.040730	-69.353592	35.912331	-8.150204
3711.044070	-69.119812	35.503216	-7.565750
3711.047418	-69.412041	35.561661	-8.383986
3711.050726	-69.587372	36.263004	-8.208649
3711.054070	-69.704269	35.970779	-8.208649
3711.057395	-70.288719	36.204559	-7.974869
3711.060725	-69.178261	35.503216	-8.442430
3711.064061	-70.347168	36.029221	-8.267094
3711.067395	-69.762718	35.678551	-8.559320
3711.070730	-69.762718	35.269432	-8.968439
3711.074062	-70.230278	35.444771	-8.208649
3711.077392	-70.171829	35.853889	-8.968439
3711.080737	-70.522499	35.736996	-8.617767
3711.084061	-71.048508	35.210987	-7.565750
3711.087400	-70.288719	35.970779	-8.208649
3711.090754	-71.574516	35.678551	-8.033314
3711.094062	-71.808304	35.736996	-8.325541
3711.097412	-71.983635	36.146114	-6.981297
3711.100730	-72.217415	36.379898	-7.215078
3711.104060	-73.269440	36.438339	-7.098188
3711.107389	-73.912331	36.613678	-7.741087
3711.110731	-73.503220	36.847458	-7.039742
3711.114056	-74.379898	36.555229	-7.215078
3711.117391	-75.431908	37.022797	-6.689070
3711.120731	-76.659264	37.256577	-7.039742
3711.124057	-76.425476	38.074810	-6.221508
3711.127392	-77.477501	38.425484	-6.396843
3711.130725	-79.113968	38.250145	-6.279953
3711.134055	-78.997078	38.717709	-5.578609
3711.137391	-80.224426	38.951492	-6.104618
3711.140738	-80.867325	39.302162	-5.578609
3711.144059	-81.627113	40.061951	-5.637054
3711.147385	-82.328461	40.354179	-4.643484
3711.150717	-83.438919	40.938633	-4.000586
3711.154062	-84.140266	40.997078	-4.117476
3711.157387	-85.309174	41.523087	-3.474577
3711.160723	-86.770309	41.698421	-3.299240
3711.164055	-87.354767	42.224430	-3.357687
3711.167390	-87.822327	43.159554	-2.364117
3711.170717	-89.517250	43.042664	-2.422562
3711.174054	-90.569260	43.451782	-1.954994
3711.177388	-91.445930	44.445351	-2.071888
3711.180719	-91.738167	44.503799	-1.312096
3711.184075	-93.140854	45.205143	-1.253651
3711.187382	-95.127998	45.614258	-1.136761
3711.190718	-96.296906	46.081821	-1.604324
3711.194048	-97.758034	46.841614	-1.078316
3711.197387	-98.634712	47.016949	0.032146
3711.200721	-99.219170	47.893631	0.382816
3711.204047	-101.381645	48.478085	0.382816
3711.207382	-103.251900	48.945648	1.259499
3711.210713	-104.654579	49.822327	1.493279
3711.214050	-106.174171	50.640560	2.662186
3711.217383	-108.570427	51.108124	3.246639
3711.220711	-109.154884	52.043251	3.538868
3711.224051	-111.492699	51.458797	4.532436
3711.227410	-112.720039	52.978374	4.766216
3711.230709	-114.999413	53.329048	5.409115
3711.234044	-117.687904	54.439507	6.344242
3711.237379	-119.616600	54.673290	7.513153
3711.240733	-121.311501	55.842197	8.389832
3711.244044	-124.058449	56.660435	8.565166
3711.247378	-126.279366	57.654003	10.026302
3711.250715	-128.500305	58.647575	11.136761
3711.254046	-132.007019	59.758038	11.838108
3711.257375	-134.753952	60.459381	12.656342
3711.260716	-138.377563	62.329632	14.117474
3711.264040	-140.247818	63.440094	15.929283
3711.267375	-143.403870	65.018120	16.864407
3711.270726	-146.618362	66.070137	18.734657
3711.274045	-149.832855	68.115723	21.072472
3711.277378	-153.164230	69.343079	23.468735
3711.280708	-156.028061	70.979538	25.514317
3711.284044	-159.885452	72.382233	26.858562
3711.287379	-163.392181	73.726479	29.722389
3711.290705	-167.015793	75.129166	31.534191
3711.294049	-169.879623	76.940964	33.930454
3711.297378	-174.905914	78.460541	37.203388
3711.300706	-178.061951	79.687897	38.722973
3711.304040	-183.029816	81.558151	41.645237
3711.307409	-186.185852	83.545288	44.450611
3711.310706	-189.926361	85.064865	47.080654
3711.314059	-195.303345	87.052017	49.944477
3711.317375	-200.095856	88.746933	53.626530
3711.320704	-204.888382	91.260086	56.899479
3711.324034	-209.564011	93.130341	60.172413
3711.327372	-213.713623	95.059021	63.796024
3711.330697	-217.980148	96.111038	68.646988
3711.334041	-224.292221	98.448868	72.913498
3711.337372	-229.084763	100.026886	77.063126
3711.340698	-234.344833	102.481583	82.147873
3711.344037	-240.072495	104.351837	87.466385
3711.347369	-245.566330	105.988312	94.070709
3711.350700	-252.521347	108.559906	99.564575
3711.354029	-258.716553	110.430161	105.526016
3711.357379	-264.327301	112.475739	111.253647
3711.360703	-271.048492	114.579773	118.559311
3711.364051	-277.945038	116.391586	127.267670
3711.367374	-283.088226	118.144943	133.404434
3711.370697	-290.218567	120.599640	141.995911
3711.374031	-297.056671	123.112793	150.762711
3711.377367	-303.485687	124.866165	158.769714
3711.380696	-311.668030	126.794861	168.646988
3711.384034	-318.623016	129.950897	178.524246
3711.387364	-325.870239	131.645813	190.330215
3711.390702	-333.292786	135.094101	201.551712
3711.394059	-341.066040	137.899475	211.545883
3711.398720	-356.787842	142.399765	237.612488
3711.402064	-364.794861	144.971359	250.412018
3711.405406	-374.087646	147.016953	265.140259
3711.408788	-381.217987	149.763870	281.972504
3711.411699	-388.640564	152.277039	296.116302
3711.415340	-396.530640	154.790176	313.299255
3711.418769	-403.018127	157.244873	329.956177
3711.422096	-411.901794	158.706009	347.139099
3711.424973	-418.798370	160.926941	367.244293
3711.428285	-425.285797	163.147858	387.466400
3711.431662	-432.708344	165.251892	406.636444
3711.435298	-438.319092	166.187012	427.442993
3711.438659	-446.443024	167.531265	450.061371
3711.441570	-451.878418	169.459961	471.744598
3711.444938	-457.606049	169.985962	495.882538
3711.448302	-463.450592	169.693756	519.552917
3711.451611	-468.126221	169.635300	541.469910
3711.454948	-471.632935	170.453522	565.549438
3711.458226	-475.198120	169.167740	593.018738
3711.461539	-476.367035	168.349503	618.617798
3711.464868	-479.172394	166.362366	644.859741
3711.468231	-479.639984	164.375214	670.751038
3711.471555	-480.165985	161.628281	698.629456
3711.474980	-480.750458	158.413788	726.800171
3711.478309	-477.769745	153.971939	755.555237
3711.481594	-475.022766	150.231430	786.005249
3711.484867	-473.269440	145.789597	814.818787
3711.488239	-467.717102	140.529510	841.762085
3711.491566	-461.755676	133.106949	872.329102
3711.494903	-455.852722	125.859726	902.603760
3711.498277	-446.559875	118.729401	934.339539
3711.501631	-435.864380	111.248398	962.101135
3711.504979	-425.110474	102.481583	993.310974
3711.508209	-412.369385	93.188782	1021.890808
3711.511543	-397.173584	84.071304	1051.347168
3711.514860	-381.393311	73.200470	1079.400879
3711.518217	-364.151947	62.388077	1107.922241
3711.521565	-345.449432	51.517242	1131.767944
3711.524989	-325.694885	40.178844	1156.548828
3711.528265	-302.667419	28.548218	1179.634644
3711.531589	-279.113953	16.566919	1201.434814
3711.534870	-254.742264	4.234950	1222.650391
3711.538198	-230.019882	-8.330801	1238.021606
3711.541530	-203.777908	-20.662769	1252.925171
3711.544904	-176.308609	-32.702511	1264.672607
3711.548241	-147.904160	-44.800701	1275.134399
3711.551133	-118.915260	-57.132671	1287.933960
3711.554467	-89.108116	-69.230865	1290.330200
3711.557856	-59.710106	-80.978378	1297.226685
3711.561100	-29.552313	-91.732315	1300.850342
3711.564445	-0.095850	-104.064285	1295.707153
3711.567772	29.594387	-114.000000	1288.518433
3711.571104	58.466393	-124.987732	1286.472778
3711.574456	86.987724	-134.105194	1274.374512
3711.577775	114.983055	-144.508484	1264.614136
3711.581106	141.166565	-152.106369	1252.223877
3711.584451	167.466965	-161.983643	1237.904663
3711.587797	192.715363	-169.464645	1217.331909
3711.591144	216.970184	-177.296326	1199.389282
3711.594452	239.705429	-184.543549	1178.465698
3711.597772	261.622437	-191.498550	1160.347778
3711.601101	280.441833	-196.992401	1137.261719
3711.604427	301.131500	-202.018692	1115.344849
3711.607771	319.132690	-207.161880	1089.628906
3711.611141	335.789612	-211.369949	1060.698364
3711.614434	352.154297	-215.578033	1036.034424
3711.617768	366.473419	-219.669205	1006.811829
3711.621117	377.753387	-223.292816	977.589172
3711.624454	391.955597	-224.637070	949.418518
3711.627785	401.423737	-227.559341	921.072510
3711.631104	410.950317	-229.604919	890.330261
3711.634430	419.308014	-229.663361	857.659302
3711.637769	426.204559	-230.072479	830.891296
3711.641099	432.984222	-230.949142	801.843994
3711.644429	438.361176	-232.059631	773.030396
3711.647757	443.679749	-230.773819	743.398621
3711.651096	446.251312	-230.715378	713.416138
3711.654482	449.290497	-228.552902	684.368774
3711.657788	450.108734	-227.033310	659.178894
3711.661126	450.400940	-225.513733	632.294006
3711.664482	449.641144	-223.877274	603.889587
3711.667346	449.816498	-220.779663	577.413818
3711.670670	449.348938	-217.915848	551.990051
3711.674007	445.608459	-216.454712	529.021057
3711.677338	442.978394	-212.421967	506.168915
3711.680669	440.056091	-210.259491	482.907623
3711.684000	436.198730	-206.402115	460.932220
3711.687329	433.744019	-202.661591	437.320282
3711.690672	426.964355	-200.031570	415.461700
3711.694004	423.282318	-195.472824	397.752777
3711.697370	419.541779	-192.316772	379.810059
3711.700664	412.236145	-188.810043	361.399750
3711.704002	408.320282	-185.128006	344.684387
3711.707332	402.300415	-181.445938	326.858551
3711.710670	396.514313	-178.582123	311.954987
3711.713994	390.202240	-175.367630	298.571014
3711.717334	385.409698	-171.568680	283.784332
3711.720659	377.987152	-167.769730	269.406799
3711.723997	372.434845	-164.263000	257.483917
