time (s)	magX	magY	magZ
6350.926788	197.628876	98.203972	-44.017536
6350.930126	198.680878	99.489769	-45.069550
6350.933459	199.499115	99.548218	-44.601990
6350.936790	200.025116	100.015785	-44.894215
6350.940120	200.843353	100.600235	-45.770897
6350.943456	201.836945	101.418472	-46.063122
6350.946804	202.304504	101.652252	-46.004677
6350.950117	202.772064	102.762711	-47.816483
6350.953449	203.707184	103.230270	-47.465809
6350.956816	204.466980	104.048515	-48.342491
6350.960119	204.992981	105.158974	-48.985390
6350.963455	206.045013	105.684982	-49.394508
6350.966784	207.097015	106.678551	-49.803623
6350.970120	207.623016	107.789017	-50.621857
6350.973452	208.967255	109.191704	-50.972534
6350.976782	209.785522	109.893051	-51.673874
6350.980116	210.837524	110.711281	-52.550556
6350.983450	212.532440	111.997078	-53.544128
6350.986788	213.701355	113.107544	-54.596146
6350.990136	214.870239	114.276451	-56.174168
6350.993448	216.272949	114.685562	-57.226185
6350.996783	217.675629	115.912918	-58.044418
6351.000120	219.370544	116.614265	-59.563999
6351.003453	221.416138	117.432503	-61.258915
6351.006782	223.052582	118.893631	-62.895386
6351.010113	225.331970	120.004097	-64.239624
6351.013447	227.669800	120.997658	-66.051437
6351.016779	229.364716	122.283463	-68.213913
6351.020110	232.170074	123.803040	-70.259499
6351.023444	234.098785	125.147285	-71.720627
6351.026794	236.787262	125.673286	-74.409119
6351.030114	239.125061	126.842194	-76.630043
6351.033482	242.164215	127.952667	-78.850967
6351.036779	244.852722	129.121567	-81.305664
6351.040117	247.950317	130.874924	-84.637054
6351.043446	250.989471	131.459381	-87.150208
6351.046780	253.911743	132.569839	-88.669785
6351.050110	256.541779	133.154297	-91.884277
6351.053440	259.639404	134.966095	-94.572762
6351.056776	262.327881	136.193451	-97.611923
6351.061452	268.055511	139.057266	-103.339569
6351.064317	271.036224	140.284622	-107.021622
6351.067763	274.367615	142.739334	-109.710114
6351.071052	276.822327	144.726471	-112.807709
6351.074298	279.744598	146.129150	-116.255997
6351.077661	283.075989	147.707184	-119.178253
6351.080956	285.647583	150.044998	-122.275864
6351.084323	288.511414	152.265915	-125.548798
6351.087649	291.492126	154.136169	-129.523087
6351.091050	294.706604	156.240204	-133.205139
6351.093885	297.278198	158.519577	-137.471649
6351.097286	300.141998	160.448273	-140.919922
6351.100526	303.648743	163.136749	-145.712448
6351.103860	306.337219	165.474564	-149.336060
6351.107203	309.317932	167.695496	-153.135010
6351.110532	312.064850	170.909988	-158.278198
6351.113864	315.454712	172.838684	-163.012268
6351.117199	318.727631	175.351837	-168.623032
6351.120140	322.117462	177.923431	-173.123322
6351.123437	325.741089	180.144363	-179.143204
6351.126769	329.247803	182.540619	-184.812393
6351.130102	333.105194	185.521332	-190.306259
6351.133434	337.021057	188.326706	-196.559906
6351.136768	340.878418	190.839844	-203.105789
6351.140098	345.670929	193.294556	-210.002350
6351.143478	349.703674	195.866150	-216.782013
6351.146773	354.262390	197.911743	-225.548813
6351.150096	358.879608	200.717117	-234.023392
6351.153434	363.204559	202.470474	-242.147293
6351.156762	368.055511	205.334305	-250.095856
6351.160098	372.146667	207.379883	-259.973114
6351.163450	376.763885	209.308594	-268.739929
6351.166760	381.439484	210.594376	-277.915833
6351.170100	385.764465	213.341324	-287.033325
6351.173432	390.440094	214.685562	-297.436615
6351.176767	395.524841	216.146698	-307.196960
6351.180093	399.908234	217.841614	-318.418457
6351.183428	404.876099	219.770294	-329.581543
6351.186762	408.733490	221.523666	-340.569275
6351.190095	413.116882	222.867905	-352.141449
6351.193427	417.617187	224.971954	-363.538300
6351.196763	422.351257	226.725296	-376.162476
6351.200097	426.033295	228.537109	-387.033325
6351.203425	430.124481	230.056671	-400.826416
6351.206775	433.748108	232.219162	-413.275269
6351.210095	436.962585	234.147873	-426.250153
6351.213425	439.592621	235.608994	-438.874359
6351.216758	442.690247	237.713043	-452.258362
6351.220092	444.852722	239.466385	-465.876099
6351.223428	446.898285	241.511978	-479.376984
6351.226762	448.826996	243.791351	-493.111603
6351.230089	449.586761	245.720032	-507.781403
6351.233422	450.872589	247.765625	-523.152527
6351.236783	451.807709	249.285202	-538.523682
6351.240092	452.275269	251.506119	-553.661011
6351.243425	452.742828	253.551712	-568.681458
6351.246760	452.509064	255.947983	-585.572144
6351.250089	452.450592	257.116882	-602.170654
6351.253419	451.573914	258.344238	-618.886047
6351.256752	451.164795	258.987122	-636.594910
6351.260090	449.469910	259.922272	-653.719421
6351.263426	447.774994	260.272949	-672.655762
6351.267705	442.865570	259.454712	-709.476318
6351.270999	439.826416	258.753357	-728.529480
6351.274268	435.267670	256.649323	-748.400879
6351.277598	430.942719	254.077728	-767.454102
6351.280961	426.500885	251.272354	-786.974854
6351.284309	420.773224	247.414963	-806.554077
6351.287628	414.811798	243.499115	-828.354126
6351.291022	408.441254	239.583282	-848.167114
6351.294345	401.661591	233.329620	-867.512573
6351.297593	394.355927	228.478653	-888.436035
6351.300513	385.647552	222.517242	-909.885376
6351.303848	377.640564	215.737579	-930.458130
6351.307171	368.347748	208.315018	-950.446472
6351.310528	358.587372	201.243118	-970.084167
6351.313843	347.833435	193.177658	-989.663269
6351.317197	336.962585	184.761536	-1007.430725
6351.320528	324.864380	176.111618	-1025.665649
6351.323868	312.240204	166.409698	-1042.614868
6351.327253	299.148437	157.701340	-1058.687256
6351.330080	285.355347	148.408539	-1074.116943
6351.333417	270.802460	138.589706	-1090.130981
6351.336746	255.197540	128.420227	-1103.281128
6351.340083	239.358856	119.010521	-1117.132690
6351.343411	223.227936	108.841034	-1129.523071
6351.346754	206.395660	100.424896	-1142.088867
6351.350085	189.271179	90.898308	-1152.199829
6351.353438	171.094681	81.371712	-1162.603271
6351.356744	153.035065	71.552895	-1172.597412
6351.360082	134.507904	62.143188	-1181.013428
6351.363410	116.272942	52.850380	-1187.968506
6351.366745	96.869080	43.908241	-1195.098877
6351.370075	77.523666	34.498539	-1201.060181
6351.373406	58.061367	25.030392	-1205.443604
6351.376743	36.728813	14.218002	-1209.184082
6351.380078	16.623611	4.574518	-1210.879028
6351.383406	-3.306252	-5.828754	-1211.112793
6351.386748	-23.937462	-15.238455	-1211.171265
6351.390073	-43.516655	-26.167738	-1210.586914
6351.393428	-63.914085	-36.454117	-1206.086548
6351.396770	-84.194633	-47.208061	-1201.937012
6351.400074	-104.241386	-57.669785	-1197.378174
6351.403406	-123.411461	-68.891289	-1191.767456
6351.406739	-142.113983	-80.580360	-1184.520142
6351.410080	-161.050262	-91.392746	-1177.682007
6351.413407	-179.226776	-103.374046	-1169.324463
6351.416741	-196.234344	-115.063118	-1159.622559
6351.420076	-213.767975	-126.576866	-1149.219116
6351.423412	-231.009369	-138.149033	-1139.634155
6351.426740	-247.198730	-150.188782	-1126.191772
6351.430074	-262.803619	-161.936295	-1112.866211
6351.433405	-276.947388	-173.099365	-1100.300415
6351.436741	-291.500305	-183.853302	-1085.221558
6351.440083	-304.182922	-193.905914	-1070.142700
6351.443405	-317.333160	-204.542953	-1053.894775
6351.446739	-328.963776	-213.660446	-1035.659912
6351.450067	-339.308594	-222.427246	-1018.360046
6351.453406	-349.185883	-229.849808	-1000.651062
6351.456771	-359.121582	-237.330811	-981.480957
6351.460065	-367.479248	-244.285797	-963.947388
6351.463406	-376.070709	-251.708344	-944.485046
6351.466736	-383.434845	-257.260681	-925.431885
6351.470064	-389.688507	-263.046753	-906.612488
6351.473403	-396.292816	-268.423737	-887.909973
6351.476734	-402.429596	-272.339569	-869.558105
6351.481354	-412.423737	-278.827026	-831.276428
6351.484306	-417.683807	-281.515503	-812.924622
6351.487611	-421.950317	-283.210419	-794.222046
6351.490990	-425.457062	-285.606659	-776.045532
6351.494324	-428.496185	-286.424927	-758.511963
6351.497602	-432.002960	-286.892487	-739.984802
6351.500903	-434.048523	-286.717133	-722.334290
6351.504243	-436.210999	-287.067810	-704.216248
6351.507607	-437.379913	-286.366455	-686.390381
6351.510932	-438.081238	-285.314423	-668.038513
6351.513848	-439.250153	-284.788422	-650.914062
6351.517186	-439.951477	-283.502625	-633.497375
6351.520525	-438.899506	-282.450623	-615.963745
6351.523824	-439.367035	-280.989502	-598.956116
6351.527181	-438.782562	-280.112793	-582.825195
6351.530494	-437.672119	-278.651672	-566.752747
6351.533816	-436.444794	-278.008759	-550.329651
6351.536727	-435.451202	-276.021637	-534.900024
6351.540061	-433.230286	-274.852722	-519.821167
6351.543391	-431.769165	-273.391602	-503.339569
6351.546730	-429.781982	-272.281128	-488.728241
6351.550066	-426.567535	-271.346008	-473.766235
6351.553388	-423.353027	-269.358856	-458.921112
6351.556727	-419.554077	-268.657501	-444.835754
6351.560054	-416.456482	-266.611938	-430.984222
6351.563410	-413.183533	-265.267700	-417.950897
6351.566725	-408.917023	-263.455872	-405.969604
6351.570058	-404.825836	-262.520752	-391.884277
6351.573391	-399.799561	-260.767395	-380.019897
6351.576748	-396.234406	-259.306244	-368.447693
6351.580061	-391.792511	-257.786682	-356.232635
6351.583389	-387.584473	-255.799561	-345.829346
6351.586719	-383.317963	-253.753967	-335.133850
6351.590059	-379.343658	-252.351288	-324.730560
6351.593387	-375.135590	-250.188782	-315.788452
6351.596727	-370.343079	-249.136780	-306.612518
6351.600052	-366.661041	-246.682068	-297.962616
6351.603385	-362.862091	-244.285797	-289.663361
6351.606738	-358.770905	-242.064880	-281.481018
6351.610049	-354.913483	-239.960846	-272.421967
6351.613385	-350.939240	-237.623047	-266.343658
6351.616720	-347.198730	-235.168335	-259.096436
6351.620049	-343.399780	-232.655182	-251.440109
6351.623388	-339.425476	-230.200470	-245.420227
6351.626713	-336.795441	-227.687317	-238.173004
6351.630052	-332.470490	-224.998840	-232.036240
6351.633386	-329.256012	-222.485672	-225.431915
6351.636717	-326.625977	-219.037399	-220.873169
6351.640051	-323.060791	-217.167145	-214.035080
6351.643395	-319.437164	-214.478668	-208.891876
6351.646724	-316.339600	-211.965530	-203.690231
6351.650078	-313.884888	-208.692581	-197.904160
6351.653386	-310.436615	-206.705444	-192.877853
6351.656720	-307.280548	-203.432495	-187.383987
6351.660050	-304.124481	-201.854477	-181.890121
6351.663383	-300.442444	-198.873779	-178.091171
6351.666715	-298.104614	-196.419067	-172.831100
6351.670049	-294.422577	-194.198151	-169.032150
6351.673381	-291.091187	-191.451202	-164.122742
6351.676716	-288.636475	-189.697845	-159.388672
6351.680067	-285.421997	-188.295166	-154.771469
6351.684730	-279.109894	-183.210403	-146.881363
6351.687644	-275.778503	-182.099945	-142.439514
6351.690973	-272.154877	-179.879028	-137.939224
6351.694320	-269.583282	-178.651672	-134.549393
6351.697560	-265.725891	-177.248978	-131.510223
6351.700886	-263.680298	-176.021622	-128.061951
6351.704229	-260.290466	-174.618942	-124.087677
6351.707581	-257.426666	-172.982468	-121.048508
6351.710919	-254.855072	-171.872009	-117.658676
6351.714309	-252.225006	-170.936890	-114.561081
6351.717154	-249.653442	-169.943314	-112.749268
6351.720513	-246.497375	-168.423737	-110.294571
6351.723838	-244.510254	-167.722397	-107.606079
6351.727126	-242.347748	-166.261261	-105.618942
6351.730471	-240.185272	-164.917023	-103.456459
6351.733802	-237.555237	-164.566345	-101.235535
6351.737139	-235.626556	-162.988312	-99.540619
6351.740463	-234.165405	-162.637634	-97.378143
6351.743823	-232.178253	-161.527176	-96.326126
6351.746706	-230.249573	-159.773819	-94.280540
6351.750042	-229.548218	-158.663361	-92.644073
6351.753371	-227.210388	-157.786682	-91.416718
6351.756705	-225.632385	-156.676224	-89.955582
6351.760055	-224.229706	-155.741104	-88.728226
6351.763375	-223.236115	-154.396851	-87.793106
6351.766732	-222.067200	-153.578613	-86.624191
6351.770039	-220.839844	-152.409714	-86.098190
6351.773369	-219.729401	-151.474579	-83.818817
6351.776703	-218.735840	-150.188782	-83.175919
6351.780048	-217.566925	-149.545883	-82.007019
6351.783369	-216.573364	-148.376984	-80.779663
6351.786707	-215.521332	-147.324951	-79.435417
6351.790036	-214.293976	-146.214493	-78.617187
6351.793366	-212.949738	-145.279373	-77.506721
6351.796700	-212.073059	-144.519577	-76.863823
6351.800036	-211.079498	-143.292236	-74.759796
6351.803365	-210.202820	-142.123337	-75.110458
6351.806701	-209.559906	-141.714203	-73.298660
6351.810048	-208.098785	-141.714203	-72.655762
6351.813370	-207.163666	-140.895981	-72.129745
6351.816703	-206.228546	-139.843948	-70.376389
6351.820033	-205.527191	-139.142609	-70.376389
6351.823362	-204.592041	-138.382812	-69.499710
6351.826732	-203.481598	-138.090607	-67.804794
6351.830034	-203.130920	-137.447693	-67.395676
6351.833366	-202.488007	-137.564590	-65.934540
6351.836700	-201.494446	-137.506134	-65.350090
6351.840063	-201.319122	-137.389252	-64.999420
6351.843362	-200.325562	-136.863251	-65.057861
6351.846695	-199.156647	-137.330811	-63.888954
6351.850028	-198.221497	-136.863251	-64.005844
6351.853374	-198.104614	-136.687912	-64.181183
6351.856693	-197.227936	-137.213913	-63.012276
6351.860027	-196.877258	-136.746353	-62.778496
6351.863370	-196.351257	-137.038574	-62.486267
6351.866697	-196.292816	-137.272354	-62.661602
6351.870026	-196.234344	-137.330811	-62.953827
6351.873363	-196.409698	-137.564590	-62.427818
6351.876692	-196.000580	-137.623032	-62.018703
6351.880024	-195.766785	-138.675049	-62.720047
6351.883378	-196.117493	-138.558167	-62.895386
6351.886689	-195.766785	-138.791946	-63.655174
6351.890028	-196.351257	-139.025726	-63.596725
6351.893363	-197.227936	-139.493286	-63.655174
6351.896699	-197.578613	-138.967270	-64.940971
6351.900026	-197.578613	-139.376389	-65.174751
6351.903360	-197.929291	-139.259506	-65.525421
6351.906695	-198.513733	-139.902405	-65.817650
6351.911316	-200.267090	-139.785507	-67.045006
6351.914262	-200.734650	-139.610168	-67.746346
6351.917564	-201.436005	-140.019287	-68.213913
6351.920986	-202.371124	-140.019287	-69.090591
6351.924309	-202.429565	-140.077728	-69.149033
6351.927666	-203.189362	-140.837524	-69.207481
6351.930875	-204.358276	-141.071304	-70.434830
6351.934202	-204.592041	-140.428406	-70.434830
6351.937536	-205.410278	-140.720627	-71.369957
6351.940892	-206.286987	-141.012863	-71.486847
6351.944275	-207.163666	-141.363541	-72.071304
6351.947130	-207.631226	-142.064880	-72.421974
6351.950496	-208.098785	-142.824677	-72.655762
6351.953820	-209.326111	-142.824677	-73.649330
6351.957146	-209.443024	-143.759796	-74.584457
6351.960449	-209.910583	-144.344254	-75.285797
6351.963818	-210.611938	-145.279373	-75.987144
6351.967107	-211.897736	-145.980713	-77.565170
6351.970442	-213.125092	-147.091171	-77.974289
6351.973351	-213.241974	-147.909424	-78.032730
6351.976688	-214.177094	-148.552307	-79.552307
6351.980020	-215.053772	-149.545883	-80.487434
6351.983351	-216.631805	-150.656342	-82.007019
6351.986680	-217.040924	-151.942154	-82.182350
6351.990019	-218.618927	-153.052612	-84.169495
6351.993347	-219.144958	-154.864410	-85.396851
6351.996682	-221.132080	-156.091766	-86.916428
6352.000014	-222.125671	-157.143784	-88.026886
6352.003348	-224.405029	-158.955582	-90.247803
6352.006729	-225.573944	-160.241394	-91.708939
6352.010017	-227.151978	-161.702515	-93.988312
6352.013348	-228.905304	-163.338989	-95.800117
6352.016677	-230.541809	-164.917023	-98.196381
6352.020011	-232.704285	-165.676804	-100.534195
6352.023345	-234.516083	-167.722397	-102.755112
6352.026677	-236.678558	-169.475754	-104.917603
6352.030016	-238.724121	-171.053787	-108.132080
6352.033344	-241.295746	-172.631805	-110.177673
6352.036679	-243.691986	-173.859161	-113.684402
6352.040016	-246.322021	-174.969620	-116.139099
6352.043341	-248.250732	-176.313858	-118.652252
6352.046674	-251.640594	-177.774994	-121.983627
6352.050026	-253.744598	-179.060776	-125.022797
6352.053343	-256.140839	-181.281723	-128.646408
6352.056677	-259.296906	-182.158386	-131.218002
6352.060008	-261.926971	-183.911743	-134.607834
6352.063343	-264.498535	-185.197556	-137.237869
6352.066674	-267.011688	-186.600250	-140.393921
6352.070005	-269.583282	-188.353607	-143.608414
6352.073363	-272.154877	-190.106949	-147.290466
6352.076680	-274.901825	-192.094101	-150.621857
6352.080038	-277.298096	-193.263016	-153.719467
6352.083344	-279.986572	-195.191711	-157.985977
6352.086669	-282.382812	-197.763306	-160.499130
6352.090012	-285.305084	-198.698441	-164.999420
6352.093345	-287.350677	-200.977798	-169.441269
6352.096669	-291.266510	-202.906509	-174.175339
6352.100007	-293.078339	-205.419647	-178.500305
6352.103337	-295.649933	-208.400360	-182.240799
6352.106676	-298.864410	-210.270615	-186.390427
6352.110030	-301.202209	-212.900650	-191.124496
6352.113343	-304.299835	-215.764465	-196.852142
6352.116666	-307.806549	-217.810043	-201.469315
6352.120004	-310.378143	-220.089432	-207.664536
6352.124273	-316.398010	-226.693756	-219.762711
6352.127619	-319.203400	-229.499146	-226.776154
6352.130936	-322.593231	-233.122742	-232.679138
6352.134178	-325.340149	-236.337250	-240.452362
6352.137519	-328.496216	-238.908813	-247.582703
6352.140842	-332.295166	-242.064880	-254.654587
6352.144202	-335.334320	-244.870239	-262.310944
6352.147605	-338.431915	-248.435425	-271.486847
6352.150953	-342.581543	-251.299255	-279.610748
6352.153820	-345.854462	-254.747528	-289.137329
6352.157106	-349.828735	-257.611328	-297.962616
6352.160424	-353.277039	-260.475159	-306.495636
6352.163763	-357.368195	-263.748108	-317.717133
6352.167097	-361.459381	-266.319702	-328.821747
6352.170415	-364.790802	-268.891296	-339.400360
6352.173748	-368.531281	-271.813568	-350.212738
6352.177090	-372.330200	-273.800690	-360.908264
6352.180001	-376.888977	-277.073639	-371.895966
6352.183330	-379.869659	-279.586792	-383.760376
6352.186659	-383.493317	-281.398590	-395.449463
6352.190011	-387.175354	-283.619537	-407.781403
6352.193328	-390.740509	-286.015778	-419.996521
6352.196665	-393.838104	-287.944458	-432.737610
6352.200000	-397.169525	-290.457642	-445.478699
6352.203334	-400.091766	-292.035675	-458.745758
6352.206660	-402.488007	-294.139679	-471.369934
6352.209995	-405.001190	-295.951508	-485.572205
6352.213331	-408.040344	-298.230865	-498.839294
6352.216658	-409.735260	-299.166016	-512.807678
6352.219987	-412.540649	-301.445343	-527.302185
6352.223326	-413.767975	-303.490936	-541.855042
6352.226661	-415.521362	-304.952087	-557.343018
6352.229989	-416.924011	-307.406799	-572.129700
6352.233362	-417.391602	-308.809479	-588.319092
6352.236658	-418.151398	-310.971954	-603.397949
6352.239990	-418.560486	-312.900665	-619.528870
6352.243322	-418.385132	-315.004669	-636.653381
6352.246654	-418.092926	-316.524261	-653.368774
6352.249988	-417.450012	-317.634705	-670.843933
6352.253323	-415.988892	-319.680298	-689.254211
6352.256655	-413.943298	-320.498566	-706.963135
6352.259989	-411.897736	-320.966125	-725.431885
6352.263321	-409.209229	-321.784332	-744.017517
6352.266667	-405.468719	-321.959686	-762.720032
6352.269996	-402.371155	-322.193481	-781.597900
6352.273324	-398.279968	-321.609009	-802.287537
6352.276689	-393.604340	-321.024536	-822.684937
6352.279987	-388.168915	-319.797180	-842.907043
6352.283323	-383.317963	-318.452972	-862.661560
6352.286652	-376.947418	-315.998260	-883.292725
6352.289991	-370.284637	-313.543549	-904.800659
6352.293314	-362.452972	-310.504364	-923.269470
6352.296653	-354.212158	-306.296326	-942.907043
6352.299979	-346.497375	-301.912903	-963.012268
6352.303313	-337.789001	-297.646423	-983.175903
6352.306644	-328.437744	-291.451202	-1000.534119
6352.309980	-317.976044	-284.496216	-1019.295105
6352.313314	-306.871429	-278.242554	-1037.120972
6352.316647	-295.942139	-270.703125	-1053.661011
6352.320007	-284.369965	-263.455872	-1070.201050
6352.324672	-260.115143	-246.156067	-1101.644653
6352.327590	-245.854462	-236.863251	-1116.957397
6352.330840	-233.230286	-228.330215	-1129.464722
6352.334166	-218.794281	-218.803635	-1142.322632
6352.337495	-204.825836	-209.393921	-1153.661133
