time (s)	magX	magY	magZ
8333.831810	148.125656	89.612511	-30.867331
8333.835145	148.242554	89.612511	-30.984221
8333.838502	148.768555	89.787849	-31.393337
8333.841811	149.586792	90.255409	-31.685566
8333.845147	149.645233	90.313850	-31.393337
8333.848479	150.171234	90.196960	-32.328465
8333.851811	150.931030	90.606079	-32.270020
8333.855140	151.807709	90.898308	-32.912918
8333.858477	152.450623	91.658096	-32.737579
8333.861813	153.677963	91.658096	-33.672707
8333.865141	154.203979	92.184105	-34.023380
8333.868478	155.197540	92.300995	-33.906487
8333.871805	155.840454	92.827003	-35.250732
8333.875141	156.892456	93.528351	-35.075394
8333.878474	157.418457	94.171242	-35.542957
8333.881803	158.295151	94.931038	-36.127411
8333.885185	159.230286	95.106377	-37.179428
8333.888486	160.223846	96.216835	-37.880772
8333.891808	160.808289	96.684395	-38.406780
8333.895136	161.801880	96.859734	-38.465225
8333.898474	162.795441	97.794861	-39.575687
8333.901812	163.964355	98.905319	-40.160141
8333.905136	165.074814	99.957336	-42.264175
8333.908475	165.776154	100.775566	-42.965519
8333.911801	166.769730	101.243134	-42.556400
8333.915137	168.113968	102.236710	-44.251316
8333.918472	169.224426	103.054939	-45.244888
8333.921805	171.679138	103.580956	-46.121567
8333.925143	172.555817	104.574516	-46.764465
8333.928472	174.133835	105.451202	-47.874928
8333.931802	175.244308	106.444771	-48.810055
8333.935137	176.997650	107.146111	-50.563416
8333.938465	178.692581	108.724144	-52.433666
8333.941799	180.095276	109.717712	-52.550556
8333.945134	182.549988	110.828171	-54.479252
8333.948467	184.127991	111.471069	-55.122150
8333.951841	185.647583	111.938629	-57.050850
8333.955167	187.108704	113.808891	-59.037991
8333.958463	189.680298	115.094688	-60.674461
8333.961798	191.667450	115.971359	-62.018703
8333.965132	194.180603	117.023376	-63.655174
8333.968485	195.933960	117.783173	-66.285217
8333.973095	201.135590	120.763878	-70.025719
8333.976484	203.882538	121.874352	-72.129745
8333.979345	206.278778	123.861488	-74.467560
8333.982720	208.908844	124.153717	-77.331390
8333.986075	211.889526	125.731735	-79.610748
8333.989321	214.110443	128.069550	-82.007019
8333.992664	217.149628	129.296906	-84.403275
8333.995979	220.539459	130.699585	-86.565750
8333.999331	222.468140	132.160721	-89.020454
8334.002660	225.098206	134.147858	-92.527176
8334.006054	227.786682	136.251892	-95.800117
8334.008910	231.001160	137.771484	-98.547050
8334.012283	234.215668	139.407944	-101.177094
8334.015565	237.021027	141.511978	-104.391586
8334.018888	239.709534	143.616013	-107.781418
8334.022224	242.924011	145.252487	-111.931030
8334.025548	246.430756	147.298065	-115.788422
8334.028881	248.885437	149.635895	-118.827591
8334.032226	252.567505	151.856796	-122.217407
8334.035127	255.489777	153.902390	-126.483932
8334.038459	257.944489	156.357101	-131.393341
8334.041810	262.269440	158.227341	-134.958496
8334.045129	265.600800	160.506714	-139.341904
8334.048460	268.055511	163.253647	-143.549973
8334.051790	271.912933	165.942139	-148.225601
8334.055127	275.536530	167.695496	-153.661011
8334.058454	278.517242	169.799530	-158.862656
8334.061836	282.783752	172.195786	-164.590302
8334.065128	286.173584	174.884277	-171.194626
8334.068451	290.264771	177.222076	-176.863815
8334.071827	293.829926	179.559891	-182.649918
8334.075117	297.862671	181.780823	-189.429581
8334.078458	301.836945	184.410873	-195.800125
8334.081790	306.161896	185.755112	-203.573349
8334.085151	310.428406	188.209824	-210.762131
8334.088457	314.461121	190.489182	-218.067795
8334.091788	319.136780	192.826996	-226.717712
8334.095119	324.046173	195.164810	-234.374054
8334.098473	328.254211	197.911743	-242.907074
8334.101780	332.228516	199.781982	-253.018127
8334.105119	336.845673	202.412033	-261.142029
8334.108452	340.878418	204.399185	-271.662201
8334.111783	345.495605	206.795441	-281.247223
8334.115117	349.995911	209.016357	-290.072479
8334.118448	354.671539	210.535950	-301.118652
8334.121786	358.821167	212.932205	-312.047913
8334.125116	362.678558	214.568680	-323.152557
8334.128485	366.769714	217.023376	-334.666290
8334.131787	371.328461	218.952072	-347.699615
8334.135112	374.718292	221.640549	-358.862640
8334.138445	378.283447	223.627701	-371.369965
8334.141796	382.082397	225.439514	-384.169495
8334.145118	384.595551	227.718872	-398.196381
8334.148452	388.277618	229.296890	-411.346588
8334.151782	390.966095	231.517822	-424.964355
8334.155107	393.420807	233.680313	-440.393921
8334.158443	396.284637	234.907654	-454.362366
8334.161777	397.804199	236.719452	-470.727081
8334.165115	399.206879	238.297470	-484.987732
8334.168446	400.083557	239.583282	-500.300415
8334.171794	401.544708	240.869080	-516.898865
8334.175106	402.187622	241.804199	-532.854431
8334.178445	402.713623	242.856232	-549.452942
8334.181774	402.772034	243.557556	-567.103394
8334.185114	402.538269	243.206894	-584.461731
8334.188439	401.486267	243.557556	-602.579773
8334.191770	400.258911	244.025116	-620.463989
8334.195106	398.797791	243.206894	-639.692566
8334.198454	396.109283	242.622437	-657.927490
8334.201808	393.537689	240.459961	-677.389771
8334.205108	390.147858	238.531265	-696.618347
8334.208446	386.407349	236.894791	-715.905334
8334.211772	382.549957	233.797180	-735.250671
8334.215120	377.406769	231.284027	-754.771423
8334.219724	365.542358	223.160141	-794.864990
8334.223122	358.178253	217.900055	-815.203918
8334.225978	350.872589	212.990646	-835.659790
8334.229361	342.807129	207.263000	-854.946777
8334.232693	333.222076	200.366455	-875.461060
8334.235999	323.169464	193.995911	-895.274048
8334.239288	312.064850	186.573349	-914.561035
8334.242615	300.784943	178.390991	-933.614258
8334.246013	289.563416	170.851532	-951.556946
8334.249313	276.179413	162.435410	-968.798340
8334.252707	262.561676	153.317932	-986.390381
8334.255547	247.132080	144.200470	-1001.410828
8334.258889	232.228516	134.147858	-1017.600220
8334.262213	216.506714	123.627708	-1032.562256
8334.265518	200.200470	113.692001	-1046.939819
8334.268863	182.257751	103.580956	-1060.557617
8334.272195	163.321442	93.586792	-1071.603760
8334.275526	145.612503	82.014610	-1082.649902
8334.278861	126.442429	70.793106	-1092.527222
8334.281771	107.097023	59.746933	-1101.293945
8334.285100	87.400940	48.759205	-1109.359497
8334.288459	67.061951	37.187027	-1114.502686
8334.291762	45.670952	25.848627	-1119.470581
8334.295093	25.507305	13.867330	-1123.211060
8334.298435	4.700760	2.178259	-1124.496826
8334.301769	-16.105782	-8.867912	-1126.834595
8334.305099	-37.146111	-20.615431	-1126.834595
8334.308433	-57.601990	-31.895384	-1126.074829
8334.311809	-78.350090	-43.876678	-1122.334351
8334.315095	-98.455284	-54.689064	-1119.645874
8334.318427	-118.969612	-65.793686	-1113.099976
8334.321761	-138.607239	-76.839859	-1107.255371
8334.325093	-157.192871	-88.119812	-1099.306885
8334.328425	-176.596741	-99.925774	-1090.306274
8334.331792	-194.188782	-111.147285	-1079.961426
8334.335095	-211.956177	-121.082985	-1069.090576
8334.338429	-228.963776	-131.895386	-1056.524902
8334.341762	-245.796021	-142.649323	-1043.666870
8334.345094	-261.634735	-153.111053	-1028.997070
8334.348426	-277.414948	-163.163651	-1013.392151
8334.351762	-290.740509	-172.456467	-999.599060
8334.355091	-305.468750	-181.924622	-982.240723
8334.358421	-318.969604	-190.749847	-965.291565
8334.361760	-331.067810	-199.633560	-946.764465
8334.365088	-342.230865	-207.348343	-927.419067
8334.368448	-353.043243	-215.238464	-907.839844
8334.371753	-362.452972	-221.667450	-887.500854
8334.375102	-372.505554	-228.973114	-867.395691
8334.378423	-380.863251	-234.817657	-846.472229
8334.381757	-388.578064	-240.253082	-825.899414
8334.385091	-394.481018	-245.220947	-804.274658
8334.388424	-401.436005	-249.604340	-782.240723
8334.391753	-406.696106	-253.286407	-761.551147
8334.395088	-411.371735	-256.325531	-740.218567
8334.398426	-414.819977	-259.072479	-719.295166
8334.401758	-417.800690	-261.877869	-697.611877
8334.405084	-420.489197	-262.812988	-677.448242
8334.408418	-423.177704	-264.157227	-656.583252
8334.411794	-424.755676	-265.092346	-635.250671
8334.415089	-426.333740	-265.267700	-615.613037
8334.418427	-426.742859	-265.793701	-595.683228
8334.421750	-427.794861	-264.800140	-576.045532
8334.426437	-426.392181	-263.105225	-538.932800
8334.429334	-425.047943	-261.819397	-520.230286
8334.432630	-424.171234	-260.066040	-502.521332
8334.435956	-421.599640	-258.546448	-484.695496
8334.439261	-420.722992	-256.442444	-467.980164
8334.442629	-417.274689	-255.156647	-451.849243
8334.445954	-413.709503	-252.585052	-434.958527
8334.449342	-411.722382	-250.597900	-419.061371
8334.452686	-407.689636	-247.617187	-403.339569
8334.455570	-404.533600	-245.396271	-389.488007
8334.458850	-400.968414	-243.116882	-374.818237
8334.462195	-397.520172	-240.253082	-360.966705
8334.465508	-392.610748	-237.681488	-348.108704
8334.468835	-388.694916	-234.759216	-334.432495
8334.472166	-384.662170	-232.479843	-322.042084
8334.475510	-380.103455	-229.206909	-309.826996
8334.478835	-376.012299	-227.278198	-297.904175
8334.482188	-370.693756	-225.115723	-285.630646
8334.485082	-365.609009	-221.842773	-275.519592
8334.488416	-361.050293	-219.621857	-264.940979
8334.491743	-356.082428	-217.284042	-253.953247
8334.495077	-351.173004	-214.420242	-244.017532
8334.498446	-345.094666	-212.374634	-233.848038
8334.501748	-341.003510	-209.569260	-225.081253
8334.505082	-335.743439	-206.647003	-215.028641
8334.508416	-330.483368	-203.490936	-206.846298
8334.511744	-325.866180	-200.744019	-197.202805
8334.515073	-320.489197	-197.880188	-189.955582
8334.518413	-315.872009	-194.665710	-181.597900
8334.521747	-311.021027	-193.204559	-175.110474
8334.525080	-305.936310	-189.347168	-167.804794
8334.528409	-300.150208	-187.360031	-159.973114
8334.531745	-296.000610	-183.677979	-153.953247
8334.535076	-291.558746	-181.515488	-147.056686
8334.538407	-286.883118	-178.300995	-141.796616
8334.541763	-282.265930	-175.086502	-135.776733
8334.545070	-277.824097	-172.690247	-130.107544
8334.548408	-274.434265	-170.118652	-124.847458
8334.551736	-269.700195	-167.897720	-119.412033
8334.555073	-266.427246	-165.033905	-115.145538
8334.558405	-262.160736	-162.228531	-110.995911
8334.561758	-257.660431	-160.007599	-105.385162
8334.565071	-253.627716	-156.968445	-101.527756
8334.568403	-250.530090	-154.572189	-97.144363
8334.571739	-246.731171	-152.117477	-94.514320
8334.575073	-243.049103	-149.604340	-89.897141
8334.578400	-239.659271	-147.850967	-85.981293
8334.581739	-236.035645	-145.688492	-82.766800
8334.585101	-233.171844	-143.000015	-78.734070
8334.588397	-230.249573	-141.188187	-76.980713
8334.591741	-226.625977	-138.791946	-73.532440
8334.595070	-224.054352	-137.155472	-70.493279
8334.598401	-221.365875	-135.168335	-67.395676
8334.601736	-217.566925	-133.064301	-65.466980
8334.605067	-214.644653	-131.252487	-63.012276
8334.608405	-211.371735	-130.258926	-60.674461
8334.611736	-209.326111	-128.096436	-58.395092
8334.615066	-206.228546	-126.459969	-55.706604
8334.618397	-203.890717	-125.115715	-53.661018
8334.621729	-201.085327	-123.537682	-51.089424
8334.625091	-198.104614	-121.784340	-48.868500
8334.628431	-195.708374	-120.966087	-46.706020
8334.631730	-193.604309	-119.037407	-45.186440
8334.635068	-190.448273	-117.926933	-43.491528
8334.639701	-187.292236	-115.063118	-38.874344
8334.643034	-184.603729	-114.244881	-37.354763
8334.645941	-181.973724	-112.842201	-35.484512
8334.649298	-180.863220	-111.848625	-33.964935
8334.652658	-178.466980	-110.855049	-32.679134
8334.655986	-176.304504	-110.153709	-31.685566
8334.659253	-174.434235	-108.166573	-29.756868
8334.662572	-171.921112	-107.289894	-28.529516
8334.665910	-170.284607	-106.939217	-27.535946
8334.669268	-168.765045	-105.770309	-25.841030
8334.672187	-167.362366	-104.367622	-24.496786
8334.675484	-165.258331	-103.783157	-23.795441
8334.678841	-163.680298	-102.146690	-21.749855
8334.682205	-162.336060	-101.328461	-22.042082
8334.685504	-161.400940	-100.276443	-20.990067
8334.688853	-159.647583	-99.984222	-19.938047
8334.692153	-158.595551	-98.756866	-19.002922
8334.695488	-156.783752	-97.587959	-18.067797
8334.698816	-155.381073	-96.477501	-17.717125
8334.701756	-153.978394	-95.717712	-16.665110
8334.705053	-153.043274	-94.607239	-16.548218
8334.708391	-151.640564	-94.081238	-15.905319
8334.711726	-151.348328	-93.613678	-15.203974
8334.715059	-150.413208	-92.444771	-14.794857
8334.718390	-149.010529	-92.269424	-14.151958
8334.721725	-148.075378	-91.100517	-13.742842
8334.725058	-147.549377	-90.223839	-13.918177
8334.728387	-146.848022	-89.873177	-12.690825
8334.731723	-145.971375	-89.639397	-12.164818
8334.735101	-145.562256	-88.938049	-11.521919
8334.738391	-145.094696	-88.295143	-11.346582
8334.741716	-144.042664	-88.119812	-11.171246
8334.745053	-143.458221	-87.827583	-9.943893
8334.748387	-142.639984	-87.593803	-9.710114
8334.751716	-141.821747	-86.834007	-9.885448
8334.755051	-141.178833	-86.541786	-10.236120
8334.758398	-140.594391	-86.366447	-9.476332
8334.761715	-140.243713	-85.840446	-8.365868
8334.765053	-139.659271	-85.840446	-8.190533
8334.768390	-138.841034	-85.372887	-8.424313
8334.771717	-138.315033	-85.606667	-8.132088
8334.775048	-137.730560	-85.022202	-7.547634
8334.778388	-137.613678	-85.080650	-7.372295
8334.781713	-137.029205	-84.788422	-6.963181
8334.785046	-137.146118	-84.379311	-6.437172
8334.788399	-136.561646	-84.729973	-6.261837
8334.791710	-135.743439	-85.080650	-6.729397
8334.795054	-135.977203	-84.846870	-7.196960
8334.798386	-135.918762	-84.320862	-6.612507
8334.801719	-134.808289	-84.028633	-6.554062
8334.805063	-135.451202	-84.437759	-6.904736
8334.808388	-134.691406	-84.437759	-6.320282
8334.811715	-134.516083	-84.496193	-6.787842
8334.815045	-134.808289	-84.496193	-6.144943
8334.818417	-134.983643	-84.379311	-6.495617
8334.821713	-135.509644	-84.320862	-6.261837
8334.825047	-135.217407	-84.437759	-5.911163
8334.828381	-135.568085	-84.320862	-5.969608
8334.831737	-136.210999	-84.203979	-6.554062
8334.835047	-136.620117	-84.671539	-6.378727
8334.838380	-136.678558	-84.320862	-6.320282
8334.841708	-136.970764	-84.496193	-7.080070
8334.845047	-136.912323	-84.671539	-7.839859
8334.849729	-138.490356	-84.846870	-7.781414
8334.852683	-139.074799	-84.905319	-7.839859
8334.855972	-139.600830	-85.139099	-8.073639
8334.859263	-139.600830	-85.723549	-8.658092
8334.862597	-140.769714	-85.489769	-8.248978
8334.865893	-141.529510	-86.074226	-8.541203
8334.869247	-141.821747	-87.067787	-9.651669
8334.872576	-142.172424	-87.301567	-9.359442
8334.876003	-142.756866	-87.827583	-10.002340
8334.879321	-143.808868	-88.236710	-10.586794
8334.882153	-144.334900	-88.412041	-11.521919
8334.885491	-145.445343	-88.821152	-11.931036
8334.888806	-146.146698	-89.639397	-13.216833
8334.892127	-146.906494	-90.048508	-12.924606
8334.895469	-147.315613	-91.158966	-13.041496
8334.898802	-148.309174	-91.684982	-13.684395
8334.902131	-149.068970	-91.801865	-14.385740
8334.905484	-150.062531	-93.146118	-14.385740
8334.908369	-151.231445	-93.613678	-14.911747
8334.911704	-151.757446	-94.431908	-15.729982
8334.915033	-153.160126	-94.782585	-16.665110
8334.918380	-153.919922	-95.600815	-17.308008
8334.921702	-155.264191	-96.477501	-17.132671
8334.925057	-156.257751	-97.295731	-18.710695
8334.928370	-157.309753	-98.523087	-18.827587
8334.931711	-158.712463	-99.633545	-19.645821
8334.935032	-159.822906	-100.218002	-19.996494
8334.938370	-161.225586	-100.744003	-20.756285
8334.941699	-162.803619	-102.322037	-21.808300
8334.945033	-163.855652	-102.964928	-22.860317
8334.948368	-165.901215	-103.666275	-24.146114
8334.951701	-167.596130	-104.776733	-24.555231
8334.955035	-169.349487	-105.711861	-26.016365
8334.958363	-170.752167	-106.354759	-27.185272
8334.961697	-173.323792	-107.874336	-28.646406
8334.965032	-174.083588	-109.043251	-29.523087
8334.968366	-177.122711	-109.978371	-30.925776
8334.971697	-179.343658	-110.562828	-31.977791
8334.975028	-181.330780	-112.140846	-32.971363
8334.978362	-183.376404	-113.017525	-34.490940
8334.981697	-185.538879	-114.595543	-36.711864
8334.985029	-187.818237	-115.998253	-38.699005
8334.988365	-190.097595	-116.933372	-39.809467
8334.991720	-191.500305	-118.160713	-42.614845
8334.995081	-194.422577	-119.621849	-44.192871
8334.998361	-196.701935	-120.615425	-46.881355
8335.001695	-199.974854	-121.901222	-48.576271
8335.005040	-202.195801	-123.654579	-51.147869
8335.008363	-205.234955	-125.115715	-52.725891
8335.011696	-207.455872	-126.869072	-55.765049
8335.015029	-210.611938	-128.973114	-57.810638
8335.018360	-213.534210	-130.434250	-61.025131
8335.021696	-216.865570	-132.070724	-63.362946
8335.025029	-219.554077	-134.408539	-66.460548
8335.028363	-222.710144	-136.571014	-69.207481
8335.031695	-226.099945	-138.382812	-72.071304
8335.035049	-228.788452	-140.662201	-74.409119
8335.038360	-232.178253	-142.824677	-77.857391
8335.041691	-235.392761	-144.811813	-81.714790
8335.045023	-238.139709	-147.208069	-84.695496
8335.048354	-241.178833	-148.961426	-88.026886
8335.053061	-249.244293	-153.520172	-96.267685
8335.055945	-252.341919	-155.857986	-99.715958
8335.059221	-255.731750	-158.663361	-103.456459
8335.062529	-259.647583	-161.410294	-108.307419
8335.065892	-263.212738	-163.572769	-112.164810
8335.069232	-267.070160	-166.144363	-117.366455
8335.072613	-271.044403	-168.248398	-122.042084
8335.075935	-274.843384	-170.644653	-126.542374
8335.079259	-278.992981	-173.391602	-132.094681
8335.082529	-282.441284	-175.963196	-137.471649
8335.085439	-287.584473	-177.950317	-144.368210
8335.088776	-291.383392	-180.521927	-150.154297
8335.092112	-296.059021	-182.918182	-157.167740
8335.095439	-300.968445	-185.606659	-163.246048
8335.098769	-304.708954	-188.528931	-170.025726
8335.102138	-310.495026	-191.158981	-176.922272
8335.105457	-314.995331	-193.321457	-185.630630
8335.108800	-319.729401	-194.782578	-193.988312
8335.112112	-324.580383	-198.406204	-201.703110
8335.115049	-329.957336	-200.802460	-210.060776
8335.118346	-334.749847	-203.198715	-219.587387
8335.121700	-339.542389	-205.945648	-228.646408
8335.125019	-344.744019	-208.458801	-238.231445
8335.128346	-349.536530	-211.264175	-248.225601
8335.131679	-354.562836	-214.361771	-258.511963
8335.135013	-359.881378	-216.641159	-269.791931
8335.138345	-364.498535	-218.745178	-280.955017
8335.141680	-369.700165	-222.076569	-292.410278
8335.145016	-374.668060	-223.771484	-304.274689
8335.148343	-378.408539	-226.401535	-316.080658
8335.151678	-383.259521	-229.499146	-329.113983
8335.155016	-388.168915	-232.070724	-343.023987
8335.158362	-392.201630	-234.817657	-356.992401
8335.161678	-396.585052	-237.330811	-370.376404
8335.165010	-401.085358	-239.376404	-385.163086
8335.168343	-404.592072	-242.123322	-400.125092
8335.171729	-408.858551	-244.636475	-416.256012
8335.175016	-412.482178	-246.331390	-431.159546
8335.178344	-415.170685	-249.019867	-447.056671
8335.181680	-417.274689	-251.065460	-463.538269
8335.185005	-420.839844	-253.403259	-480.721252
8335.188347	-423.353027	-254.981293	-496.969025
8335.191676	-425.340149	-256.267120	-515.788391
8335.195008	-426.976593	-257.611328	-533.380432
8335.198340	-428.788452	-258.371124	-552.082947
8335.201705	-429.489777	-258.838684	-571.136169
8335.205006	-430.483368	-259.014038	-589.955566
8335.208340	-430.366455	-259.306244	-609.534790
8335.211673	-430.191101	-258.546448	-628.821716
8335.215006	-429.372894	-258.604919	-648.050232
8335.218341	-428.613098	-256.267120	-668.798340
8335.221676	-426.918182	-254.981293	-689.780212
8335.225006	-423.879028	-253.169495	-710.411438
8335.228336	-421.073639	-250.597900	-730.867310
8335.231670	-417.450012	-247.909424	-751.323181
8335.235000	-413.943298	-243.935120	-772.597290
8335.238343	-408.917023	-240.136169	-792.819397
8335.241714	-404.299866	-235.343658	-813.041443
8335.245030	-398.630646	-230.726471	-833.789551
8335.248339	-391.558777	-225.174179	-854.187012
8335.251674	-384.428436	-219.212738	-873.707764
8335.255003	-375.544708	-213.192886	-893.579163
8335.258330	-366.193451	-206.705444	-913.450623
