time (s)	magX	magY	magZ
7285.280010	180.153717	116.614265	-49.745178
7285.283349	181.497955	118.776741	-51.264759
7285.286676	183.777313	119.887199	-52.725891
7285.290010	185.764465	121.114555	-54.303917
7285.293345	187.050262	122.049683	-55.531269
7285.296674	189.329620	123.277039	-56.174168
7285.300008	190.615417	124.913506	-58.979546
7285.303365	192.661011	126.491531	-60.616013
7285.306674	194.823486	127.485100	-62.194038
7285.310009	196.050842	128.478653	-62.953827
7285.313336	197.628876	129.764465	-64.882523
7285.316673	199.089996	131.167145	-66.168320
7285.320010	201.778503	132.745178	-68.213913
7285.323340	203.181183	133.388077	-69.207481
7285.326671	204.759216	135.258331	-70.843948
7285.330004	206.454132	136.018112	-72.655762
7285.333340	208.382812	137.654587	-74.233780
7285.336708	210.311523	139.349503	-75.811806
7285.340006	212.357117	140.226181	-77.974289
7285.343340	214.461121	142.563995	-79.084747
7285.346708	216.798950	144.551132	-80.604324
7285.350004	218.610748	146.070724	-83.117477
7285.353340	220.656342	148.233185	-84.286385
7285.356666	222.935699	149.518997	-87.793106
7285.360007	224.922852	151.739914	-89.897141
7285.363337	227.786682	153.843948	-92.351837
7285.366670	230.358276	156.064865	-96.092346
7285.370004	232.754517	159.162476	-98.605499
7285.373334	235.150787	160.331375	-101.469315
7285.376670	238.540619	163.078308	-104.917603
7285.380003	240.644653	165.299240	-108.307419
7285.383333	242.924011	167.812378	-112.690826
7285.386668	246.080078	170.559326	-116.723557
7285.391383	252.392151	176.170074	-126.016357
7285.394268	255.898895	179.150787	-130.049103
7285.397526	259.054932	181.547043	-134.783173
7285.400851	262.444763	184.936874	-140.277039
7285.404176	266.126831	188.209824	-145.011108
7285.407542	269.750427	191.307419	-151.030975
7285.410876	272.848053	193.469894	-156.291061
7285.414264	276.004089	196.976608	-162.252487
7285.417595	279.686157	199.898880	-168.564590
7285.420936	282.900665	203.873169	-174.000015
7285.424168	286.582703	206.678543	-181.364120
7285.427106	290.206329	209.425476	-187.442444
7285.430426	292.661011	212.289291	-193.696091
7285.433793	295.992401	216.146698	-200.767975
7285.437084	299.148437	219.185852	-208.482758
7285.440421	302.947388	222.341904	-215.320862
7285.443752	305.752777	225.030380	-222.977219
7285.447106	309.376373	228.420227	-229.289307
7285.450439	312.415527	231.810059	-237.120987
7285.453778	316.623596	235.199860	-244.368210
7285.456659	319.662750	238.355927	-251.673874
7285.459990	323.520172	241.687302	-259.447113
7285.463324	326.267090	245.135574	-268.155457
7285.466654	329.715363	248.700745	-276.863800
7285.469989	333.514313	252.032150	-284.695496
7285.473326	336.144348	255.363525	-293.520752
7285.476688	339.358856	258.636475	-302.229095
7285.479991	341.404449	262.201630	-312.047913
7285.483325	343.976013	265.240814	-322.451202
7285.486657	347.015198	268.513733	-332.270020
7285.489994	348.651642	271.786682	-343.199310
7285.493325	351.924591	275.410278	-353.777924
7285.496660	353.736389	279.092346	-365.466980
7285.499982	355.840454	282.540619	-377.331390
7285.503322	357.476898	285.930450	-390.072479
7285.506660	359.347168	289.086487	-403.398010
7285.509987	360.925171	293.528320	-417.191132
7285.513318	362.444763	296.567505	-430.984222
7285.516653	362.912323	300.424896	-445.244904
7285.520035	364.198120	304.282288	-459.797760
7285.523320	364.665680	307.321442	-474.935120
7285.526656	365.250153	310.594391	-490.540039
7285.529986	364.841003	313.925781	-506.904755
7285.533313	363.847443	317.023376	-524.789001
7285.536652	362.678558	319.770294	-542.381042
7285.539991	360.632935	322.634125	-558.395081
7285.543313	357.827576	324.387482	-575.694885
7285.546655	355.431335	326.140839	-594.222046
7285.549979	351.924591	327.543518	-612.457031
7285.553317	347.658081	329.121552	-630.165955
7285.556648	343.917572	329.939819	-648.400879
7285.559978	339.008179	330.816467	-666.460510
7285.563327	333.981873	330.991791	-684.695435
7285.566648	328.371124	330.465790	-702.287537
7285.569985	322.059021	329.939819	-720.931580
7285.573314	314.987152	329.939819	-739.575623
7285.576644	307.856812	329.238464	-757.576843
7285.579977	300.434235	327.835754	-774.642883
7285.583338	291.433655	326.549957	-792.527100
7285.586649	283.309753	324.562836	-810.352966
7285.589982	274.309174	321.874329	-826.951477
7285.593343	264.198120	319.010498	-843.608337
7285.596643	253.561066	315.912903	-859.096436
7285.599975	242.631805	312.113953	-874.876648
7285.603312	230.942719	308.256561	-890.247803
7285.606654	218.844543	303.931610	-904.742249
7285.609974	205.109894	299.489777	-919.470459
7285.613312	192.018127	293.762115	-932.679138
7285.617990	163.555237	282.365295	-960.206848
7285.620854	148.417877	276.696075	-973.123352
7285.624284	132.871414	270.033295	-984.578613
7285.627598	116.857399	263.019867	-996.092285
7285.630867	100.492691	255.889526	-1007.547668
7285.634164	83.309761	248.350082	-1017.600220
7285.637524	65.367035	240.167725	-1027.711304
7285.640843	46.255405	231.225601	-1035.192261
7285.644176	27.377558	222.108109	-1042.790283
7285.647519	7.915253	212.639969	-1048.868530
7285.650434	-12.014610	202.178253	-1054.128540
7285.653778	-31.769142	191.365860	-1059.037964
7285.657087	-52.341904	180.261246	-1061.726440
7285.660396	-73.323784	168.163055	-1063.421387
7285.663735	-94.247231	156.707764	-1064.648682
7285.667095	-114.586205	145.310928	-1063.772095
7285.670401	-135.275879	132.862076	-1063.421387
7285.673731	-155.322601	120.120987	-1058.862671
7285.677058	-176.070740	107.847458	-1055.531372
7285.679969	-195.591461	95.457047	-1051.031006
7285.683303	-214.703094	82.774399	-1046.063110
7285.686636	-234.048492	70.033310	-1037.763916
7285.689967	-252.751038	57.526009	-1029.230835
7285.693303	-271.161316	45.252483	-1019.879578
7285.696632	-287.759796	33.563416	-1010.177673
7285.700020	-304.533630	21.231443	-999.599060
7285.703347	-320.021637	8.957919	-987.676208
7285.706636	-334.516083	-1.971361	-974.292175
7285.709993	-348.426086	-13.777323	-961.492737
7285.713301	-360.641174	-23.537699	-947.056641
7285.716638	-371.979553	-33.765633	-932.503784
7285.719967	-383.201050	-42.766220	-917.658691
7285.723302	-393.370544	-52.701927	-901.586243
7285.726635	-402.546478	-61.702515	-885.513672
7285.729962	-411.079468	-69.534187	-869.733521
7285.733298	-419.437195	-78.067207	-853.310303
7285.736636	-427.327332	-85.372887	-836.770264
7285.739962	-434.516083	-92.853889	-820.989990
7285.743294	-440.477478	-100.042656	-804.742249
7285.746628	-446.146698	-106.237869	-788.786621
7285.749967	-450.939240	-112.900642	-771.486816
7285.753300	-456.082428	-118.745171	-754.187012
7285.756626	-459.764465	-124.414375	-737.471619
7285.759964	-462.686737	-129.499130	-719.821167
7285.763297	-465.725922	-133.882538	-702.813538
7285.766665	-467.888397	-137.681473	-684.929260
7285.769961	-469.583282	-141.655762	-666.460510
7285.773295	-471.102875	-146.448273	-648.576233
7285.776630	-471.453522	-149.838120	-628.938599
7285.779958	-471.511993	-152.409714	-611.814087
7285.783295	-471.395111	-155.448868	-593.111572
7285.786631	-470.518402	-158.137344	-574.409058
7285.789994	-469.407990	-160.767395	-556.875488
7285.793296	-468.005219	-162.754532	-538.582153
7285.796626	-466.427277	-164.975449	-521.399170
7285.799959	-464.498566	-166.144363	-503.982452
7285.803292	-461.810028	-167.839279	-487.851532
7285.806621	-459.413788	-169.358856	-469.850403
7285.809955	-456.491547	-169.767975	-453.777893
7285.813288	-453.101715	-170.586212	-437.354767
7285.816626	-449.478088	-171.404449	-422.684998
7285.819955	-445.445374	-171.521347	-407.138519
7285.823291	-441.997070	-171.229111	-392.293396
7285.826621	-436.970795	-171.404449	-377.272949
7285.829982	-432.002960	-170.995331	-363.830505
7285.833330	-427.151978	-170.878433	-351.030975
7285.836621	-422.417908	-170.527771	-338.582123
7285.839964	-417.274689	-169.767975	-325.899475
7285.843293	-412.014587	-168.832855	-314.561096
7285.847909	-402.429596	-167.079483	-292.527161
7285.851261	-396.877258	-166.027481	-283.059021
7285.854165	-391.967834	-166.027481	-274.175323
7285.857558	-387.642914	-164.507889	-264.122711
7285.860876	-382.675049	-163.631210	-255.823502
7285.864196	-377.999420	-162.286972	-246.589142
7285.867458	-373.908264	-160.825836	-239.809479
7285.870810	-369.174164	-160.066040	-232.211578
7285.874134	-364.206329	-159.072479	-224.789017
7285.877076	-359.647583	-157.728226	-216.782013
7285.880377	-354.621277	-155.682648	-208.950317
7285.883736	-349.711884	-154.630630	-202.638229
7285.887071	-345.562225	-153.403290	-195.858566
7285.890407	-340.711273	-151.942154	-190.130920
7285.893768	-335.743439	-150.656342	-183.585037
7285.897045	-331.710693	-148.610764	-178.500305
7285.900393	-327.385742	-147.675629	-171.662201
7285.903704	-323.002350	-145.980713	-166.635880
7285.906617	-317.859161	-144.344254	-160.090012
7285.909950	-314.410889	-143.467575	-154.771469
7285.913277	-309.501465	-141.831100	-149.920517
7285.916616	-305.118073	-140.720627	-144.426651
7285.919962	-300.559326	-138.616592	-139.166565
7285.923274	-296.585052	-137.272354	-134.549393
7285.926611	-291.850983	-135.577438	-129.698425
7285.929945	-287.584473	-134.466980	-123.620102
7285.933278	-283.434845	-132.655182	-119.236710
7285.936605	-279.752777	-130.843369	-114.970200
7285.939949	-275.778503	-129.557571	-110.236115
7285.943299	-272.037994	-127.687309	-106.495621
7285.946609	-267.479248	-125.875511	-102.229103
7285.949944	-263.738739	-125.583290	-98.488602
7285.953280	-259.530670	-123.537682	-94.397430
7285.956606	-256.023987	-122.251900	-91.416718
7285.959945	-252.458801	-119.914085	-87.676208
7285.963301	-249.419647	-119.154289	-84.052597
7285.966616	-245.971375	-118.102287	-81.013443
7285.969941	-242.464661	-116.115135	-78.149620
7285.973276	-238.607269	-115.472237	-74.759796
7285.976603	-235.684998	-114.186440	-72.831100
7285.979935	-232.645813	-113.017525	-70.610168
7285.983273	-230.483368	-112.374626	-68.447693
7285.986607	-227.794861	-111.030388	-64.824081
7285.989935	-225.749268	-109.744591	-63.772064
7285.993278	-223.002350	-109.277031	-61.492695
7285.996605	-220.547638	-108.458794	-59.856224
7285.999936	-218.092926	-107.699013	-58.161308
7286.003273	-216.339600	-106.354759	-57.810638
7286.006608	-213.943298	-106.004089	-56.349503
7286.009983	-211.547058	-105.127411	-54.479252
7286.013271	-209.793671	-104.659851	-52.492111
7286.016606	-208.157227	-103.958504	-51.206314
7286.019939	-206.111633	-103.432495	-51.498539
7286.023272	-204.825836	-102.848038	-49.043835
7286.026603	-203.014038	-101.796028	-48.810055
7286.029936	-201.143768	-101.094681	-47.874928
7286.033266	-199.448853	-100.977783	-46.296902
7286.036602	-198.513733	-99.925774	-45.829338
7286.039939	-196.000580	-99.516663	-44.718880
7286.043262	-194.656342	-99.107536	-42.790184
7286.046601	-193.019867	-98.523087	-41.504383
7286.049953	-191.967865	-97.178848	-40.627705
7286.053264	-189.922272	-97.120399	-39.751022
7286.056602	-188.636475	-96.068375	-38.406780
7286.059931	-187.350677	-95.893044	-36.361195
7286.064627	-184.253052	-94.081238	-34.724724
7286.067555	-182.733490	-93.146118	-34.257160
7286.070787	-181.330780	-93.204552	-32.737579
7286.074114	-180.161896	-92.094093	-31.685566
7286.077443	-178.583862	-91.918762	-30.691994
7286.080826	-177.298096	-91.042084	-30.049095
7286.084132	-175.836945	-90.457626	-28.354179
7286.087512	-174.843384	-89.697830	-28.061953
7286.090858	-173.849792	-89.522499	-26.659264
7286.094115	-172.330231	-89.522499	-25.957920
7286.097012	-171.219757	-88.762703	-25.022795
7286.100362	-170.050842	-88.002922	-24.672121
7286.103693	-169.407959	-87.476913	-24.087667
7286.107018	-168.297485	-88.119812	-23.561661
7286.110373	-167.479248	-87.243134	-23.736996
7286.113689	-166.544128	-86.717125	-23.035652
7286.117037	-166.193451	-87.301567	-23.152542
7286.120374	-165.316772	-86.775574	-22.100527
7286.123266	-165.433655	-86.892456	-21.925190
7286.126605	-165.141418	-86.950905	-22.100527
7286.129925	-164.966095	-86.132660	-21.632965
7286.133260	-164.089417	-86.541786	-22.158972
7286.136595	-163.738739	-86.366447	-21.574518
7286.139924	-164.030975	-86.658676	-22.334309
7286.143257	-163.446503	-86.775574	-21.691410
7286.146595	-163.680298	-86.717125	-21.632965
7286.149925	-163.271179	-86.775574	-22.392754
7286.153280	-163.680298	-86.775574	-22.509644
7286.156593	-163.621857	-87.652245	-22.334309
7286.159921	-163.388062	-87.476913	-22.626535
7286.163250	-164.147858	-87.418465	-22.568090
7286.166589	-163.504974	-87.769142	-23.094097
7286.169918	-163.738739	-88.061363	-23.035652
7286.173249	-163.855652	-88.119812	-23.035652
7286.176589	-163.388062	-88.528923	-23.853888
7286.179919	-164.089417	-88.353592	-24.029222
7286.183254	-164.673859	-88.587372	-24.263004
7286.186585	-164.849213	-89.054939	-23.503216
7286.189993	-164.615417	-88.821152	-23.970778
7286.193261	-165.024567	-88.938049	-23.736996
7286.196599	-165.024567	-89.580948	-23.620106
7286.199921	-165.141418	-89.873177	-24.496786
7286.203250	-165.199890	-90.340736	-24.204559
7286.206578	-165.608978	-90.340736	-24.263004
7286.209918	-165.550568	-90.223839	-23.736996
7286.213251	-166.193451	-90.106956	-24.029222
7286.216586	-166.251892	-90.691406	-24.087667
7286.219918	-165.667450	-90.691406	-24.146114
7286.223253	-166.719452	-91.275864	-24.847458
7286.226588	-166.661011	-91.860313	-24.730568
7286.229918	-167.011688	-92.152542	-25.198132
7286.233248	-167.479248	-91.918762	-25.256577
7286.236579	-168.180603	-92.327873	-25.256577
7286.239925	-168.823486	-93.087669	-25.256577
7286.243247	-169.349487	-93.146118	-26.308594
7286.246581	-170.459961	-94.139679	-25.490356
7286.249913	-171.161316	-94.607239	-26.893045
7286.253245	-171.745758	-95.367035	-27.360607
7286.256582	-172.563995	-95.425484	-28.003508
7286.259915	-173.908234	-96.828171	-28.938633
7286.263251	-175.077148	-97.412628	-29.873758
7286.266577	-176.421387	-98.289307	-30.458212
7286.271200	-178.934540	-100.451782	-32.562244
7286.274549	-179.694336	-100.977783	-33.672707
7286.277498	-181.506134	-102.438919	-34.724724
7286.280827	-183.084167	-103.023376	-36.127411
7286.284184	-185.012848	-104.016945	-37.120983
7286.287506	-186.473999	-105.419632	-38.289890
7286.290762	-188.636475	-106.997658	-40.277031
7286.294101	-189.746948	-107.932793	-41.387493
7286.297424	-191.266510	-109.160149	-43.725307
7286.300790	-192.786102	-109.803032	-46.472240
7286.303669	-194.539429	-111.497963	-46.998249
7286.307031	-196.468140	-112.666862	-48.985390
7286.310354	-198.279938	-113.835777	-49.686733
7286.313691	-199.448853	-115.472237	-51.323204
7286.317044	-201.845123	-116.465813	-52.725891
7286.320371	-203.598480	-117.517830	-54.654587
7286.323662	-205.527191	-119.154289	-56.583282
7286.327015	-207.748108	-120.732307	-57.693748
7286.329907	-209.443024	-122.018120	-59.271774
7286.333242	-211.897736	-123.011696	-60.732903
7286.336568	-213.709534	-124.239052	-61.843369
7286.339902	-215.579803	-126.459969	-63.538284
7286.343238	-217.157806	-126.869072	-65.408531
7286.346572	-219.729401	-128.622452	-67.278786
7286.349904	-222.008759	-130.025131	-69.382820
7286.353232	-224.288147	-131.194046	-70.902397
7286.356569	-226.450623	-133.005844	-72.480423
7286.359902	-228.963776	-134.233200	-74.584457
7286.363257	-231.301605	-136.337234	-77.272942
7286.366581	-233.756287	-138.032150	-79.786087
7286.369909	-235.977203	-139.317947	-81.948570
7286.373235	-239.133270	-140.720627	-84.111046
7286.376565	-241.529541	-143.175339	-87.091759
7286.379904	-245.445374	-145.045593	-90.540039
7286.383234	-247.958527	-146.623611	-93.462303
7286.386566	-251.406799	-148.727646	-96.852135
7286.389900	-254.095276	-150.890121	-99.774399
7286.393231	-257.718903	-153.052612	-104.566925
7286.396562	-260.407379	-156.091766	-108.365860
7286.399895	-264.206299	-157.845123	-113.216827
7286.403229	-267.303925	-160.533615	-117.249557
7286.406592	-270.927551	-162.988312	-122.042084
7286.409897	-274.258911	-165.676804	-126.951492
7286.413233	-277.999420	-168.715958	-132.386902
7286.416559	-281.681488	-170.410873	-138.289886
7286.419895	-285.597321	-173.683807	-144.718872
7286.423227	-289.630066	-176.781418	-149.160721
7286.426562	-294.013458	-179.002350	-155.472824
7286.429896	-298.221527	-182.041489	-162.369370
7286.433224	-301.786682	-184.846863	-168.973709
7286.436559	-305.644073	-187.827606	-174.993576
7286.439897	-310.319702	-191.158981	-183.059036
7286.443226	-314.469330	-193.847458	-189.721802
7286.446565	-318.735840	-197.587952	-196.735245
7286.449930	-322.768555	-200.393326	-204.333145
7286.453226	-326.567505	-203.724731	-211.755707
7286.456571	-331.184692	-206.822342	-220.054947
7286.459894	-335.217438	-209.978378	-228.003510
7286.463224	-339.425476	-213.075989	-235.601410
7286.466563	-343.399780	-216.348923	-245.303329
7286.469893	-346.964935	-218.862076	-253.485687
7286.473227	-351.406799	-221.609009	-261.960236
7286.476553	-355.030426	-224.940384	-270.610168
7286.481238	-362.978943	-230.258911	-288.669769
7286.484206	-367.654572	-233.590302	-299.014618
7286.487484	-370.459961	-236.454132	-308.774994
7286.490743	-374.960266	-239.668610	-319.470490
7286.494120	-378.876099	-242.824677	-330.282898
7286.497398	-382.265930	-245.337799	-341.855072
7286.500763	-386.123352	-248.844543	-353.777924
7286.504116	-389.688507	-251.357697	-365.934540
7286.507482	-392.786102	-254.513733	-378.500305
7286.510808	-396.585052	-257.903564	-391.416718
7286.513654	-400.325562	-260.066040	-405.735840
7286.517000	-403.656921	-262.871429	-419.645813
7286.520309	-406.462311	-265.501465	-434.374054
7286.523645	-409.150818	-268.949738	-448.926941
7286.526972	-411.488617	-271.404449	-465.700775
7286.530299	-413.884857	-273.917603	-482.065460
7286.533651	-415.696686	-277.307434	-499.599091
7286.537044	-417.625366	-278.885437	-517.541809
7286.540331	-418.618927	-281.398590	-536.478088
7286.543665	-419.086517	-283.268860	-554.888306
7286.547003	-420.664520	-284.963776	-574.701355
7286.549885	-421.015198	-287.535370	-594.864990
7286.553219	-420.956787	-288.119843	-614.911743
7286.556551	-420.489197	-289.464050	-635.893616
7286.559880	-418.794281	-290.574524	-657.226135
7286.563216	-416.514893	-290.983643	-677.097595
7286.566551	-414.469299	-291.801880	-699.014587
7286.569884	-411.430145	-291.568115	-720.639343
7286.573219	-407.865021	-291.158966	-741.212158
7286.576545	-403.423126	-290.866760	-761.551147
7286.579901	-399.273499	-289.230286	-782.533020
7286.583213	-393.604340	-287.886047	-803.281067
7286.586547	-387.233795	-286.074219	-823.970764
7286.589877	-380.687927	-283.736420	-844.309692
7286.593213	-373.499115	-281.106354	-863.830444
7286.596542	-365.725922	-278.300995	-884.111023
7286.599881	-357.485138	-275.086517	-904.859131
7286.603209	-348.601410	-270.586212	-922.334290
7286.606546	-339.600830	-266.904144	-941.621277
7286.609873	-329.957336	-262.345428	-960.966675
7286.613227	-319.144958	-257.728241	-977.682007
7286.616544	-307.631226	-253.052612	-996.150757
7286.619875	-295.825256	-247.032715	-1011.814087
7286.623244	-283.843964	-241.012878	-1027.477417
7286.626542	-270.927551	-233.999435	-1042.614868
7286.629883	-256.783783	-226.401535	-1057.050781
7286.633209	-242.815338	-219.095856	-1070.843994
7286.636543	-228.496216	-211.965530	-1083.877319
7286.639872	-212.832855	-203.724731	-1096.092407
7286.643210	-196.994141	-195.016373	-1107.255371
7286.646542	-180.804779	-186.015793	-1117.950928
7286.649878	-163.329651	-176.255402	-1127.828125
7286.653205	-146.380463	-165.443024	-1136.419678
7286.656536	-127.385735	-155.215088	-1144.426636
7286.659874	-108.624779	-144.870255	-1150.855713
7286.663208	-89.513145	-133.940979	-1156.758667
7286.666559	-69.700172	-122.777916	-1160.089966
7286.669869	-49.010513	-111.264168	-1163.772095
7286.673207	-28.320862	-99.458214	-1165.993042
7286.676535	-7.397427	-87.593803	-1167.571045
7286.679874	13.818237	-76.080063	-1165.876099
7286.683200	34.507889	-63.631203	-1163.363037
7286.686542	56.249561	-51.474579	-1160.323853
7286.689868	77.406784	-39.727058	-1155.648193
7286.693202	98.271774	-27.687315	-1147.641235
7286.696537	119.662773	-15.939802	-1140.627686
